[DEFAULT]

version = diffpy.pdfgetx-2.2.1

# input and output specifications
dataformat = twotheta
inputfile = Synthetic_CSH_CSH_pdf_ramp_100_03_normalized.chi
backgroundfiles = quartz_030degC_normalized.chi
outputtype = gr

# PDF calculation setup
mode = xray
wavelength = 0.2113
twothetazero = 0
composition = CaO SiO2
bgscales = 1.0
rpoly = 0.9
qmaxinst = 23.7031
qmin = 0.5
qmax = 20
rmin = 0
rmax = 60
rstep = 0.01

# End of config --------------------------------------------------------------

#### start data
#S 1
#L r(Å)  G(Å$^{-2}$)
0 0
0.01 -0.000170491
0.02 -0.000347612
0.03 -0.000536416
0.04 -0.000740621
0.05 -0.000964139
0.06 -0.00120452
0.07 -0.00145724
0.08 -0.00171581
0.09 -0.00196998
0.1 -0.00220577
0.11 -0.00241
0.12 -0.00256814
0.13 -0.00266227
0.14 -0.00267016
0.15 -0.00258762
0.16 -0.00240557
0.17 -0.00211834
0.18 -0.00170868
0.19 -0.00119903
0.2 -0.000600505
0.21 7.01815e-05
0.22 0.000793458
0.23 0.00153233
0.24 0.00225173
0.25 0.00291506
0.26 0.00347233
0.27 0.00387667
0.28 0.00409822
0.29 0.00410227
0.3 0.0038473
0.31 0.00328705
0.32 0.00243952
0.33 0.00130297
0.34 -0.000113843
0.35 -0.0018235
0.36 -0.00374386
0.37 -0.00582342
0.38 -0.00799842
0.39 -0.0101854
0.4 -0.012282
0.41 -0.0141918
0.42 -0.0158133
0.43 -0.0169998
0.44 -0.0176289
0.45 -0.0176322
0.46 -0.0169168
0.47 -0.0153609
0.48 -0.0128222
0.49 -0.00934805
0.5 -0.00490968
0.51 0.000505103
0.52 0.00702
0.53 0.0144374
0.54 0.0226871
0.55 0.031676
0.56 0.041349
0.57 0.051489
0.58 0.0619153
0.59 0.0724544
0.6 0.0828984
0.61 0.0930182
0.62 0.102628
0.63 0.111538
0.64 0.119514
0.65 0.126284
0.66 0.131804
0.67 0.135944
0.68 0.138587
0.69 0.139412
0.7 0.138608
0.71 0.136162
0.72 0.132089
0.73 0.126241
0.74 0.118856
0.75 0.110092
0.76 0.10008
0.77 0.0888859
0.78 0.0767259
0.79 0.0638579
0.8 0.0504684
0.81 0.03674
0.82 0.0228837
0.83 0.0091103
0.84 -0.00441271
0.85 -0.0175273
0.86 -0.0299985
0.87 -0.0417825
0.88 -0.0527886
0.89 -0.0629476
0.9 -0.0720937
0.91 -0.0802873
0.92 -0.087558
0.93 -0.0939242
0.94 -0.099348
0.95 -0.103904
0.96 -0.107717
0.97 -0.110856
0.98 -0.113371
0.99 -0.115319
1 -0.116841
1.01 -0.118007
1.02 -0.118883
1.03 -0.119504
1.04 -0.119961
1.05 -0.120298
1.06 -0.120547
1.07 -0.120731
1.08 -0.120878
1.09 -0.121004
1.1 -0.12112
1.11 -0.121234
1.12 -0.121359
1.13 -0.121506
1.14 -0.121688
1.15 -0.12193
1.16 -0.122264
1.17 -0.122717
1.18 -0.123326
1.19 -0.124134
1.2 -0.125229
1.21 -0.126627
1.22 -0.128376
1.23 -0.130521
1.24 -0.133164
1.25 -0.136295
1.26 -0.139917
1.27 -0.144035
1.28 -0.148679
1.29 -0.153796
1.3 -0.159299
1.31 -0.165109
1.32 -0.171135
1.33 -0.177239
1.34 -0.18326
1.35 -0.189041
1.36 -0.194406
1.37 -0.199068
1.38 -0.202911
1.39 -0.205755
1.4 -0.207427
1.41 -0.20757
1.42 -0.206167
1.43 -0.203144
1.44 -0.19842
1.45 -0.191785
1.46 -0.183281
1.47 -0.173068
1.48 -0.161234
1.49 -0.147835
1.5 -0.13301
1.51 -0.117136
1.52 -0.10047
1.53 -0.0832955
1.54 -0.0659537
1.55 -0.0488418
1.56 -0.032303
1.57 -0.0166814
1.58 -0.00252635
1.59 0.0099358
1.6 0.0204508
1.61 0.0287641
1.62 0.0344158
1.63 0.0372877
1.64 0.0374424
1.65 0.0348379
1.66 0.029343
1.67 0.0209225
1.68 0.0100146
1.69 -0.00317695
1.7 -0.0184253
1.71 -0.0356028
1.72 -0.0540817
1.73 -0.0734923
1.74 -0.093448
1.75 -0.113521
1.76 -0.13325
1.77 -0.152258
1.78 -0.170197
1.79 -0.186587
1.8 -0.201158
1.81 -0.213789
1.82 -0.224325
1.83 -0.232539
1.84 -0.238291
1.85 -0.241851
1.86 -0.243317
1.87 -0.242813
1.88 -0.240362
1.89 -0.236492
1.9 -0.231493
1.91 -0.225679
1.92 -0.219354
1.93 -0.212952
1.94 -0.206803
1.95 -0.201209
1.96 -0.196547
1.97 -0.193061
1.98 -0.190871
1.99 -0.190103
2 -0.190911
2.01 -0.193363
2.02 -0.197237
2.03 -0.202406
2.04 -0.208704
2.05 -0.215963
2.06 -0.223745
2.07 -0.23173
2.08 -0.239571
2.09 -0.246788
2.1 -0.253027
2.11 -0.257944
2.12 -0.261207
2.13 -0.262286
2.14 -0.260952
2.15 -0.257125
2.16 -0.250658
2.17 -0.241298
2.18 -0.228918
2.19 -0.213855
2.2 -0.19624
2.21 -0.176219
2.22 -0.153839
2.23 -0.129741
2.24 -0.104284
2.25 -0.0778634
2.26 -0.0508852
2.27 -0.0239106
2.28 0.00261235
2.29 0.0282541
2.3 0.052434
2.31 0.074763
2.32 0.0949938
2.33 0.112845
2.34 0.127918
2.35 0.139918
2.36 0.149021
2.37 0.155202
2.38 0.158439
2.39 0.15853
2.4 0.156043
2.41 0.151198
2.42 0.144256
2.43 0.135303
2.44 0.124932
2.45 0.113515
2.46 0.101401
2.47 0.0889317
2.48 0.0765077
2.49 0.064447
2.5 0.0530211
2.51 0.0425332
2.52 0.0332453
2.53 0.0252037
2.54 0.0184982
2.55 0.0132041
2.56 0.00946973
2.57 0.00704618
2.58 0.00583709
2.59 0.00571317
2.6 0.00662492
2.61 0.00824899
2.62 0.0103744
2.63 0.0127999
2.64 0.0153154
2.65 0.0176931
2.66 0.0197582
2.67 0.0213603
2.68 0.0223302
2.69 0.0225376
2.7 0.0219879
2.71 0.0206607
2.72 0.0185503
2.73 0.0156324
2.74 0.0120925
2.75 0.00803808
2.76 0.00359727
2.77 -0.00109743
2.78 -0.00583654
2.79 -0.0104543
2.8 -0.0147897
2.81 -0.0186267
2.82 -0.0218235
2.83 -0.0242861
2.84 -0.0259167
2.85 -0.0265789
2.86 -0.0261956
2.87 -0.0248451
2.88 -0.0225479
2.89 -0.0193309
2.9 -0.0151967
2.91 -0.0103702
2.92 -0.00497757
2.93 0.000838997
2.94 0.00694117
2.95 0.0131099
2.96 0.0191782
2.97 0.024986
2.98 0.0303217
2.99 0.0350468
3 0.0390678
3.01 0.0422875
3.02 0.0445689
3.03 0.0458333
3.04 0.0461473
3.05 0.0455201
3.06 0.0439622
3.07 0.0414546
3.08 0.0382009
3.09 0.034303
3.1 0.0298772
3.11 0.0250109
3.12 0.0199106
3.13 0.0147184
3.14 0.00956961
3.15 0.0046269
3.16 2.03067e-05
3.17 -0.00415504
3.18 -0.00780847
3.19 -0.0108205
3.2 -0.0131121
3.21 -0.0147072
3.22 -0.0155919
3.23 -0.0157499
3.24 -0.015137
3.25 -0.0138849
3.26 -0.0120443
3.27 -0.00967578
3.28 -0.00678832
3.29 -0.00352689
3.3 3.10845e-05
3.31 0.00381495
3.32 0.00776909
3.33 0.0118159
3.34 0.0158996
3.35 0.0199821
3.36 0.0240329
3.37 0.028034
3.38 0.0319878
3.39 0.0359039
3.4 0.0398021
3.41 0.0437169
3.42 0.0476862
3.43 0.0517505
3.44 0.0559524
3.45 0.0603679
3.46 0.0650164
3.47 0.0699309
3.48 0.0751398
3.49 0.0806998
3.5 0.0866015
3.51 0.0928264
3.52 0.09936
3.53 0.106194
3.54 0.113287
3.55 0.120562
3.56 0.127959
3.57 0.135409
3.58 0.14282
3.59 0.150106
3.6 0.157183
3.61 0.163965
3.62 0.1703
3.63 0.176152
3.64 0.181452
3.65 0.186133
3.66 0.190055
3.67 0.193209
3.68 0.195593
3.69 0.197184
3.7 0.197911
3.71 0.197765
3.72 0.196831
3.73 0.195132
3.74 0.192678
3.75 0.189457
3.76 0.185608
3.77 0.181189
3.78 0.176259
3.79 0.170819
3.8 0.165009
3.81 0.158892
3.82 0.15253
3.83 0.145968
3.84 0.139282
3.85 0.13253
3.86 0.125757
3.87 0.119009
3.88 0.112328
3.89 0.10574
3.9 0.0992711
3.91 0.0929466
3.92 0.0867998
3.93 0.0808248
3.94 0.0750313
3.95 0.069427
3.96 0.0640486
3.97 0.0588719
3.98 0.0538998
3.99 0.0491358
4 0.0446086
4.01 0.0403075
4.02 0.0362274
4.03 0.0323731
4.04 0.028768
4.05 0.0254205
4.06 0.0223173
4.07 0.0194645
4.08 0.0168781
4.09 0.014588
4.1 0.0125684
4.11 0.0108249
4.12 0.00936282
4.13 0.00823307
4.14 0.00739658
4.15 0.00685685
4.16 0.00661798
4.17 0.00672018
4.18 0.00714499
4.19 0.00788312
4.2 0.00893817
4.21 0.0103388
4.22 0.0120904
4.23 0.0141689
4.24 0.0165766
4.25 0.0193267
4.26 0.022446
4.27 0.0258911
4.28 0.0296563
4.29 0.033733
4.3 0.0381539
4.31 0.0428522
4.32 0.0478049
4.33 0.0529838
4.34 0.0583735
4.35 0.0639116
4.36 0.0695431
4.37 0.0752143
4.38 0.0808594
4.39 0.0863996
4.4 0.0917671
4.41 0.096888
4.42 0.10167
4.43 0.105988
4.44 0.109807
4.45 0.113051
4.46 0.115648
4.47 0.117406
4.48 0.118375
4.49 0.118505
4.5 0.117756
4.51 0.115989
4.52 0.113261
4.53 0.10961
4.54 0.10505
4.55 0.0995431
4.56 0.0931451
4.57 0.0859856
4.58 0.0781377
4.59 0.0696652
4.6 0.0606415
4.61 0.051241
4.62 0.0415747
4.63 0.0317573
4.64 0.0219183
4.65 0.0121916
4.66 0.00268868
4.67 -0.00648506
4.68 -0.0151686
4.69 -0.0232989
4.7 -0.0308205
4.71 -0.0376747
4.72 -0.0437555
4.73 -0.0490341
4.74 -0.0535576
4.75 -0.0573326
4.76 -0.0603511
4.77 -0.0626061
4.78 -0.064235
4.79 -0.0653015
4.8 -0.0658777
4.81 -0.0659956
4.82 -0.0658163
4.83 -0.06543
4.84 -0.0649277
4.85 -0.0644061
4.86 -0.0639653
4.87 -0.0636834
4.88 -0.0636306
4.89 -0.0638972
4.9 -0.0645395
4.91 -0.0655708
4.92 -0.0670152
4.93 -0.0689045
4.94 -0.0712681
4.95 -0.0740427
4.96 -0.0772043
4.97 -0.0807214
4.98 -0.0845922
4.99 -0.088714
5 -0.0930323
5.01 -0.0974902
5.02 -0.102031
5.03 -0.10658
5.04 -0.111078
5.05 -0.11547
5.06 -0.119689
5.07 -0.123685
5.08 -0.127431
5.09 -0.130896
5.1 -0.13404
5.11 -0.13682
5.12 -0.139261
5.13 -0.141357
5.14 -0.143106
5.15 -0.144464
5.16 -0.14549
5.17 -0.146196
5.18 -0.146593
5.19 -0.146659
5.2 -0.146433
5.21 -0.145935
5.22 -0.145175
5.23 -0.144136
5.24 -0.142825
5.25 -0.14126
5.26 -0.139437
5.27 -0.137337
5.28 -0.134932
5.29 -0.132241
5.3 -0.129251
5.31 -0.125947
5.32 -0.12227
5.33 -0.118254
5.34 -0.113894
5.35 -0.109182
5.36 -0.104073
5.37 -0.0986029
5.38 -0.092793
5.39 -0.0866571
5.4 -0.0801899
5.41 -0.0734282
5.42 -0.066426
5.43 -0.0592215
5.44 -0.0518523
5.45 -0.0443682
5.46 -0.0368382
5.47 -0.0293173
5.48 -0.0218641
5.49 -0.0145642
5.5 -0.00746374
5.51 -0.000620271
5.52 0.00591052
5.53 0.0120216
5.54 0.0176938
5.55 0.0228949
5.56 0.0275868
5.57 0.0316856
5.58 0.0351723
5.59 0.038068
5.6 0.0403619
5.61 0.0420203
5.62 0.0430128
5.63 0.0434183
5.64 0.0432558
5.65 0.0425451
5.66 0.0412525
5.67 0.0394961
5.68 0.0373187
5.69 0.0347673
5.7 0.0318569
5.71 0.0286823
5.72 0.0253084
5.73 0.0217925
5.74 0.0181901
5.75 0.0145714
5.76 0.0109978
5.77 0.00752336
5.78 0.00421073
5.79 0.00112822
5.8 -0.00169827
5.81 -0.00422983
5.82 -0.00642812
5.83 -0.00821287
5.84 -0.00961386
5.85 -0.0106175
5.86 -0.0112171
5.87 -0.0113599
5.88 -0.0110985
5.89 -0.0104604
5.9 -0.00946905
5.91 -0.00812749
5.92 -0.00648822
5.93 -0.00461569
5.94 -0.00255776
5.95 -0.000362139
5.96 0.00190996
5.97 0.00418856
5.98 0.00641616
5.99 0.00853353
6 0.0104554
6.01 0.0121491
6.02 0.0135686
6.03 0.0146734
6.04 0.0153795
6.05 0.0156972
6.06 0.0156212
6.07 0.0151464
6.08 0.0142414
6.09 0.0129373
6.1 0.0112878
6.11 0.00933042
6.12 0.00710067
6.13 0.00465534
6.14 0.00208571
6.15 -0.00053724
6.16 -0.0031361
6.17 -0.00560534
6.18 -0.00787027
6.19 -0.00985058
6.2 -0.0114681
6.21 -0.0125796
6.22 -0.0131568
6.23 -0.0131513
6.24 -0.0125128
6.25 -0.0111327
6.26 -0.00900001
6.27 -0.00614439
6.28 -0.00256407
6.29 0.00176942
6.3 0.00685883
6.31 0.0125918
6.32 0.0189186
6.33 0.025787
6.34 0.033174
6.35 0.0409268
6.36 0.0489609
6.37 0.0571878
6.38 0.065518
6.39 0.0738356
6.4 0.0820488
6.41 0.0900709
6.42 0.0977855
6.43 0.105113
6.44 0.112007
6.45 0.118407
6.46 0.124232
6.47 0.12941
6.48 0.133973
6.49 0.137903
6.5 0.141182
6.51 0.143734
6.52 0.145662
6.53 0.146987
6.54 0.147734
6.55 0.147862
6.56 0.147475
6.57 0.146623
6.58 0.145344
6.59 0.143642
6.6 0.141576
6.61 0.139205
6.62 0.136561
6.63 0.133659
6.64 0.130521
6.65 0.127189
6.66 0.12368
6.67 0.120002
6.68 0.116147
6.69 0.112141
6.7 0.107988
6.71 0.103687
6.72 0.0992175
6.73 0.0945972
6.74 0.0898294
6.75 0.0849159
6.76 0.0798472
6.77 0.0746378
6.78 0.0693068
6.79 0.0638686
6.8 0.0583374
6.81 0.0527375
6.82 0.0471038
6.83 0.0414665
6.84 0.03586
6.85 0.0303337
6.86 0.0249204
6.87 0.0196591
6.88 0.0145893
6.89 0.00978837
6.9 0.00527073
6.91 0.00106784
6.92 -0.00278707
6.93 -0.00622229
6.94 -0.00922431
6.95 -0.0117942
6.96 -0.0139153
6.97 -0.0155459
6.98 -0.0166619
6.99 -0.0173071
7 -0.0174847
7.01 -0.0171917
7.02 -0.0163909
7.03 -0.0151611
7.04 -0.0135216
7.05 -0.0114942
7.06 -0.00905458
7.07 -0.00627886
7.08 -0.00320086
7.09 0.000150464
7.1 0.00376749
7.11 0.00760299
7.12 0.0116131
7.13 0.015767
7.14 0.0200392
7.15 0.0243955
7.16 0.0287948
7.17 0.033206
7.18 0.0375967
7.19 0.0419243
7.2 0.0461609
7.21 0.0502741
7.22 0.0542317
7.23 0.0579689
7.24 0.0614732
7.25 0.0647149
7.26 0.0676618
7.27 0.070245
7.28 0.0724457
7.29 0.0742541
7.3 0.0756443
7.31 0.0765626
7.32 0.0769729
7.33 0.0769024
7.34 0.0763407
7.35 0.0752691
7.36 0.0736345
7.37 0.0715104
7.38 0.0689096
7.39 0.0658506
7.4 0.0622983
7.41 0.0583458
7.42 0.0540356
7.43 0.0494097
7.44 0.0444905
7.45 0.0393515
7.46 0.0340597
7.47 0.0286699
7.48 0.0232392
7.49 0.0178343
7.5 0.012512
7.51 0.00732409
7.52 0.0023256
7.53 -0.00240808
7.54 -0.00686466
7.55 -0.0110116
7.56 -0.0148224
7.57 -0.0182223
7.58 -0.0212462
7.59 -0.0238941
7.6 -0.0261684
7.61 -0.0280396
7.62 -0.0295471
7.63 -0.0307316
7.64 -0.0316195
7.65 -0.0322256
7.66 -0.0325857
7.67 -0.0327598
7.68 -0.0327857
7.69 -0.0326993
7.7 -0.0325367
7.71 -0.0323462
7.72 -0.0321607
7.73 -0.0320096
7.74 -0.0319316
7.75 -0.0319417
7.76 -0.0320552
7.77 -0.0322832
7.78 -0.0326458
7.79 -0.0331367
7.8 -0.0337456
7.81 -0.0344641
7.82 -0.0352856
7.83 -0.0361928
7.84 -0.0371581
7.85 -0.0381608
7.86 -0.0391783
7.87 -0.0401829
7.88 -0.0411508
7.89 -0.0420599
7.9 -0.0428897
7.91 -0.043604
7.92 -0.0441991
7.93 -0.0446632
7.94 -0.044987
7.95 -0.0451477
7.96 -0.0451524
7.97 -0.0450106
7.98 -0.0447282
7.99 -0.0443061
8 -0.0437582
8.01 -0.0431125
8.02 -0.0423884
8.03 -0.0416067
8.04 -0.040792
8.05 -0.0399766
8.06 -0.0391869
8.07 -0.0384499
8.08 -0.037809
8.09 -0.0372822
8.1 -0.0368945
8.11 -0.0366699
8.12 -0.0366543
8.13 -0.0368585
8.14 -0.0372906
8.15 -0.0379646
8.16 -0.038911
8.17 -0.0401419
8.18 -0.0416385
8.19 -0.0434003
8.2 -0.0454319
8.21 -0.0477471
8.22 -0.0503003
8.23 -0.0530755
8.24 -0.0560529
8.25 -0.0592334
8.26 -0.0625602
8.27 -0.0660027
8.28 -0.0695285
8.29 -0.0731046
8.3 -0.0766852
8.31 -0.0802304
8.32 -0.0837015
8.33 -0.0870477
8.34 -0.0902207
8.35 -0.0931926
8.36 -0.0959261
8.37 -0.0983749
8.38 -0.100472
8.39 -0.102223
8.4 -0.103601
8.41 -0.10458
8.42 -0.105072
8.43 -0.105122
8.44 -0.104721
8.45 -0.10386
8.46 -0.102481
8.47 -0.100618
8.48 -0.0982976
8.49 -0.0955281
8.5 -0.0922899
8.51 -0.0885999
8.52 -0.0845143
8.53 -0.0800558
8.54 -0.0752378
8.55 -0.0700653
8.56 -0.06461
8.57 -0.0589034
8.58 -0.0529778
8.59 -0.0468429
8.6 -0.0405657
8.61 -0.0341816
8.62 -0.0277258
8.63 -0.0212335
8.64 -0.0147487
8.65 -0.00830812
8.66 -0.00194689
8.67 0.004288
8.68 0.010354
8.69 0.0162266
8.7 0.0218716
8.71 0.0272441
8.72 0.0322806
8.73 0.0369818
8.74 0.0413168
8.75 0.0452557
8.76 0.0486986
8.77 0.0516832
8.78 0.0541867
8.79 0.0561882
8.8 0.0576061
8.81 0.0584656
8.82 0.058779
8.83 0.0585418
8.84 0.0577109
8.85 0.0562933
8.86 0.0543461
8.87 0.0518875
8.88 0.0489232
8.89 0.0454526
8.9 0.0415707
8.91 0.0373199
8.92 0.0327476
8.93 0.0278717
8.94 0.0227983
8.95 0.0175877
8.96 0.012302
8.97 0.00701179
8.98 0.00179222
8.99 -0.0032932
9 -0.00818273
9.01 -0.0127918
9.02 -0.0170548
9.03 -0.0209437
9.04 -0.0244145
9.05 -0.0274095
9.06 -0.0298558
9.07 -0.0317877
9.08 -0.0331918
9.09 -0.0340616
9.1 -0.0343177
9.11 -0.0340571
9.12 -0.0332994
9.13 -0.0320711
9.14 -0.0303556
9.15 -0.0282352
9.16 -0.0257702
9.17 -0.0230082
9.18 -0.0199836
9.19 -0.0167604
9.2 -0.0134096
9.21 -0.00998356
9.22 -0.00653473
9.23 -0.00312249
9.24 0.000206458
9.25 0.00341032
9.26 0.00645056
9.27 0.00925874
9.28 0.0118345
9.29 0.0141552
9.3 0.0162026
9.31 0.0179264
9.32 0.0193422
9.33 0.0204565
9.34 0.0212692
9.35 0.0217588
9.36 0.0219355
9.37 0.0218312
9.38 0.0214569
9.39 0.0208147
9.4 0.0199043
9.41 0.0187706
9.42 0.0174299
9.43 0.0158982
9.44 0.0141703
9.45 0.0122934
9.46 0.0102867
9.47 0.00817014
9.48 0.00595625
9.49 0.0036787
9.5 0.00136408
9.51 -0.000962618
9.52 -0.00327114
9.53 -0.00552774
9.54 -0.00770387
9.55 -0.00976815
9.56 -0.0116796
9.57 -0.0133863
9.58 -0.0148714
9.59 -0.0161004
9.6 -0.0170376
9.61 -0.0175977
9.62 -0.0177965
9.63 -0.0176062
9.64 -0.0170027
9.65 -0.0159086
9.66 -0.0143477
9.67 -0.0123263
9.68 -0.00984188
9.69 -0.0068594
9.7 -0.00339979
9.71 0.000483546
9.72 0.00476363
9.73 0.00942186
9.74 0.0144302
9.75 0.0197005
9.76 0.0251791
9.77 0.0308084
9.78 0.0365289
9.79 0.0422551
9.8 0.0479207
9.81 0.0534593
9.82 0.0587724
9.83 0.0638068
9.84 0.0685107
9.85 0.0728303
9.86 0.0766754
9.87 0.0800055
9.88 0.0828208
9.89 0.0850977
9.9 0.0867934
9.91 0.0878673
9.92 0.0883858
9.93 0.0883623
9.94 0.0878129
9.95 0.0867025
9.96 0.0851458
9.97 0.0831854
9.98 0.0808689
9.99 0.0782146
10 0.0753149
10.01 0.072234
10.02 0.0690272
10.03 0.0657472
10.04 0.0624574
10.05 0.05921
10.06 0.0560492
10.07 0.0530228
10.08 0.05018
10.09 0.0475327
10.1 0.0451018
10.11 0.0429046
10.12 0.0409839
10.13 0.0393057
10.14 0.0378659
10.15 0.0366551
10.16 0.0356856
10.17 0.0349141
10.18 0.0343124
10.19 0.0338558
10.2 0.033526
10.21 0.0332867
10.22 0.0331016
10.23 0.0329419
10.24 0.032778
10.25 0.032576
10.26 0.0323118
10.27 0.0319617
10.28 0.0315027
10.29 0.0308954
10.3 0.0301402
10.31 0.0292231
10.32 0.0281326
10.33 0.0268341
10.34 0.0253395
10.35 0.02365
10.36 0.0217636
10.37 0.0196625
10.38 0.0173548
10.39 0.0148586
10.4 0.0121804
10.41 0.00931995
10.42 0.00628116
10.43 0.00309484
10.44 -0.000224682
10.45 -0.00366277
10.46 -0.00721164
10.47 -0.010835
10.48 -0.0145115
10.49 -0.0182183
10.5 -0.021929
10.51 -0.025614
10.52 -0.0292471
10.53 -0.0328016
10.54 -0.0362381
10.55 -0.0395282
10.56 -0.0426535
10.57 -0.0455891
10.58 -0.048299
10.59 -0.0507467
10.6 -0.0529372
10.61 -0.0548553
10.62 -0.0564845
10.63 -0.0577779
10.64 -0.0587737
10.65 -0.0594724
10.66 -0.0598787
10.67 -0.0599642
10.68 -0.0597759
10.69 -0.0593379
10.7 -0.058671
10.71 -0.0577813
10.72 -0.0567072
10.73 -0.0554898
10.74 -0.0541588
10.75 -0.0527416
10.76 -0.0512714
10.77 -0.049785
10.78 -0.0483101
10.79 -0.0468728
10.8 -0.0455067
10.81 -0.0442239
10.82 -0.0430392
10.83 -0.0419635
10.84 -0.0410202
10.85 -0.0401981
10.86 -0.039492
10.87 -0.0388955
10.88 -0.0384074
10.89 -0.038008
10.9 -0.0376749
10.91 -0.0373896
10.92 -0.0371327
10.93 -0.0368799
10.94 -0.0366084
10.95 -0.0362982
10.96 -0.0359295
10.97 -0.0354738
10.98 -0.0349266
10.99 -0.0342771
11 -0.0335181
11.01 -0.0326296
11.02 -0.0316253
11.03 -0.0305118
11.04 -0.0292968
11.05 -0.0279834
11.06 -0.026592
11.07 -0.0251447
11.08 -0.0236606
11.09 -0.0221601
11.1 -0.020669
11.11 -0.0192096
11.12 -0.0178033
11.13 -0.0164718
11.14 -0.0152479
11.15 -0.0141366
11.16 -0.0131518
11.17 -0.0123044
11.18 -0.0116241
11.19 -0.0110985
11.2 -0.0107259
11.21 -0.0105046
11.22 -0.0104442
11.23 -0.0105295
11.24 -0.0107418
11.25 -0.0110689
11.26 -0.0115026
11.27 -0.0120281
11.28 -0.0126204
11.29 -0.0132634
11.3 -0.0139419
11.31 -0.0146407
11.32 -0.0153416
11.33 -0.0160317
11.34 -0.0166996
11.35 -0.0173297
11.36 -0.0179169
11.37 -0.0184555
11.38 -0.0189409
11.39 -0.019364
11.4 -0.0197253
11.41 -0.0200275
11.42 -0.0202713
11.43 -0.0204541
11.44 -0.0205759
11.45 -0.0206442
11.46 -0.0206607
11.47 -0.0206259
11.48 -0.020536
11.49 -0.0203985
11.5 -0.0202139
11.51 -0.0199824
11.52 -0.0196967
11.53 -0.0193624
11.54 -0.0189795
11.55 -0.0185477
11.56 -0.0180616
11.57 -0.0175242
11.58 -0.0169395
11.59 -0.0163098
11.6 -0.0156363
11.61 -0.0149237
11.62 -0.0141826
11.63 -0.0134212
11.64 -0.0126492
11.65 -0.0118799
11.66 -0.0111276
11.67 -0.0104064
11.68 -0.00973156
11.69 -0.00913057
11.7 -0.00861396
11.71 -0.00819739
11.72 -0.00789714
11.73 -0.00774445
11.74 -0.00774945
11.75 -0.00791752
11.76 -0.00825957
11.77 -0.00879692
11.78 -0.00954207
11.79 -0.0104806
11.8 -0.0116125
11.81 -0.0129399
11.82 -0.0144755
11.83 -0.0161843
