[DEFAULT]

version = diffpy.pdfgetx-2.2.1

# input and output specifications
dataformat = twotheta
inputfile = Synthetic_CSH_CSH_pdf_ramp_200_10_normalized.chi
backgroundfiles = quartz_030degC_normalized.chi
outputtype = gr

# PDF calculation setup
mode = xray
wavelength = 0.2113
twothetazero = 0
composition = CaO SiO2
bgscales = 1.0
rpoly = 0.9
qmaxinst = 23.7031
qmin = 0.5
qmax = 20
rmin = 0
rmax = 60
rstep = 0.01

# End of config --------------------------------------------------------------

#### start data
#S 1
#L r(Å)  G(Å$^{-2}$)
0 0
0.01 -0.00200826
0.02 -0.00395199
0.03 -0.0057761
0.04 -0.00742829
0.05 -0.00882849
0.06 -0.00994618
0.07 -0.0107563
0.08 -0.0112322
0.09 -0.0113264
0.1 -0.0110305
0.11 -0.0103763
0.12 -0.00937722
0.13 -0.0080447
0.14 -0.00639639
0.15 -0.00451433
0.16 -0.00245096
0.17 -0.000265476
0.18 0.00197507
0.19 0.00418386
0.2 0.00628889
0.21 0.00821811
0.22 0.00986294
0.23 0.0111687
0.24 0.0120874
0.25 0.0125697
0.26 0.0125352
0.27 0.0119566
0.28 0.0108631
0.29 0.00926123
0.3 0.00715451
0.31 0.0045579
0.32 0.0015877
0.33 -0.00168088
0.34 -0.00515879
0.35 -0.00874229
0.36 -0.0122866
0.37 -0.0156684
0.38 -0.0187597
0.39 -0.0213623
0.4 -0.023366
0.41 -0.0246665
0.42 -0.0251527
0.43 -0.0246426
0.44 -0.0230482
0.45 -0.0203845
0.46 -0.0166172
0.47 -0.0116875
0.48 -0.00553898
0.49 0.0016492
0.5 0.00980135
0.51 0.0188201
0.52 0.0286692
0.53 0.0390664
0.54 0.0498416
0.55 0.0608104
0.56 0.0717522
0.57 0.0824351
0.58 0.0926584
0.59 0.102225
0.6 0.110858
0.61 0.118362
0.62 0.124651
0.63 0.129597
0.64 0.133028
0.65 0.134756
0.66 0.134914
0.67 0.133494
0.68 0.130513
0.69 0.125814
0.7 0.119723
0.71 0.112352
0.72 0.103833
0.73 0.0942086
0.74 0.0837572
0.75 0.0726806
0.76 0.061149
0.77 0.0493186
0.78 0.0373813
0.79 0.0254979
0.8 0.0137942
0.81 0.00239468
0.82 -0.00857907
0.83 -0.019107
0.84 -0.0291569
0.85 -0.038715
0.86 -0.0477275
0.87 -0.0563042
0.88 -0.0644949
0.89 -0.0723605
0.9 -0.0799455
0.91 -0.0873567
0.92 -0.0946703
0.93 -0.101949
0.94 -0.109248
0.95 -0.116609
0.96 -0.124045
0.97 -0.131552
0.98 -0.139102
0.99 -0.146639
1 -0.154086
1.01 -0.161353
1.02 -0.168333
1.03 -0.174833
1.04 -0.180778
1.05 -0.186043
1.06 -0.190512
1.07 -0.193945
1.08 -0.196331
1.09 -0.197634
1.1 -0.197818
1.11 -0.196776
1.12 -0.19457
1.13 -0.191351
1.14 -0.187228
1.15 -0.182314
1.16 -0.176786
1.17 -0.170936
1.18 -0.164996
1.19 -0.159219
1.2 -0.153961
1.21 -0.149443
1.22 -0.14591
1.23 -0.143585
1.24 -0.142871
1.25 -0.143797
1.26 -0.146423
1.27 -0.150796
1.28 -0.157058
1.29 -0.165073
1.3 -0.174569
1.31 -0.185329
1.32 -0.197109
1.33 -0.209544
1.34 -0.222138
1.35 -0.234457
1.36 -0.246024
1.37 -0.256112
1.38 -0.264367
1.39 -0.270317
1.4 -0.273519
1.41 -0.273101
1.42 -0.269006
1.43 -0.261058
1.44 -0.24907
1.45 -0.232559
1.46 -0.211644
1.47 -0.186731
1.48 -0.158044
1.49 -0.125749
1.5 -0.0901966
1.51 -0.0522831
1.52 -0.0126182
1.53 0.0281277
1.54 0.069151
1.55 0.109554
1.56 0.148558
1.57 0.18539
1.58 0.21881
1.59 0.248339
1.6 0.273428
1.61 0.293529
1.62 0.307634
1.63 0.315507
1.64 0.31731
1.65 0.312964
1.66 0.302189
1.67 0.284906
1.68 0.262081
1.69 0.234151
1.7 0.201589
1.71 0.164624
1.72 0.124611
1.73 0.0823163
1.74 0.0385369
1.75 -0.00589667
1.76 -0.0499969
1.77 -0.0929846
1.78 -0.134142
1.79 -0.172521
1.8 -0.20754
1.81 -0.23892
1.82 -0.266316
1.83 -0.289249
1.84 -0.307391
1.85 -0.321212
1.86 -0.330849
1.87 -0.336476
1.88 -0.338028
1.89 -0.336489
1.9 -0.332343
1.91 -0.32612
1.92 -0.318242
1.93 -0.309522
1.94 -0.300536
1.95 -0.291796
1.96 -0.283876
1.97 -0.277211
1.98 -0.272051
1.99 -0.26861
2 -0.267116
2.01 -0.267664
2.02 -0.26996
2.03 -0.273807
2.04 -0.278941
2.05 -0.285044
2.06 -0.291503
2.07 -0.297827
2.08 -0.303493
2.09 -0.307717
2.1 -0.310032
2.11 -0.309952
2.12 -0.307005
2.13 -0.300412
2.14 -0.289903
2.15 -0.275443
2.16 -0.256887
2.17 -0.233944
2.18 -0.206532
2.19 -0.175263
2.2 -0.14043
2.21 -0.102369
2.22 -0.061323
2.23 -0.0182958
2.24 0.0260812
2.25 0.0711328
2.26 0.11605
2.27 0.160024
2.28 0.202355
2.29 0.242368
2.3 0.27907
2.31 0.311918
2.32 0.340618
2.33 0.364774
2.34 0.383773
2.35 0.397201
2.36 0.405472
2.37 0.408619
2.38 0.406668
2.39 0.39933
2.4 0.387627
2.41 0.371959
2.42 0.352792
2.43 0.330287
2.44 0.305436
2.45 0.278858
2.46 0.251119
2.47 0.222765
2.48 0.194437
2.49 0.166637
2.5 0.13979
2.51 0.114362
2.52 0.0907575
2.53 0.0690479
2.54 0.0493718
2.55 0.031847
2.56 0.0167067
2.57 0.00358139
2.58 -0.00766126
2.59 -0.0171991
2.6 -0.0250681
2.61 -0.0317361
2.62 -0.0374903
2.63 -0.0425977
2.64 -0.0473073
2.65 -0.0519242
2.66 -0.0566835
2.67 -0.0617704
2.68 -0.0673722
2.69 -0.0736295
2.7 -0.0805457
2.71 -0.0881301
2.72 -0.0963641
2.73 -0.105221
2.74 -0.114499
2.75 -0.124053
2.76 -0.133715
2.77 -0.143261
2.78 -0.152485
2.79 -0.161195
2.8 -0.169205
2.81 -0.176236
2.82 -0.182158
2.83 -0.186904
2.84 -0.190385
2.85 -0.192456
2.86 -0.19306
2.87 -0.192346
2.88 -0.190368
2.89 -0.187187
2.9 -0.182823
2.91 -0.177576
2.92 -0.171603
2.93 -0.165078
2.94 -0.158147
2.95 -0.151061
2.96 -0.143994
2.97 -0.137102
2.98 -0.130575
2.99 -0.124531
3 -0.119043
3.01 -0.114172
3.02 -0.110001
3.03 -0.106553
3.04 -0.10374
3.05 -0.101514
3.06 -0.0998175
3.07 -0.0985894
3.08 -0.0976586
3.09 -0.0969113
3.1 -0.0962297
3.11 -0.0954711
3.12 -0.0945165
3.13 -0.0932648
3.14 -0.0916265
3.15 -0.0894708
3.16 -0.0867606
3.17 -0.0834876
3.18 -0.079638
3.19 -0.0751782
3.2 -0.0701246
3.21 -0.0645709
3.22 -0.0585707
3.23 -0.0521777
3.24 -0.0454408
3.25 -0.0384794
3.26 -0.0313623
3.27 -0.0241532
3.28 -0.0169086
3.29 -0.00968006
3.3 -0.00249395
3.31 0.00463885
3.32 0.0117203
3.33 0.0187814
3.34 0.0258657
3.35 0.0330281
3.36 0.0403504
3.37 0.047928
3.38 0.0558284
3.39 0.0641344
3.4 0.0729435
3.41 0.0823963
3.42 0.0924872
3.43 0.103261
3.44 0.114747
3.45 0.127058
3.46 0.140073
3.47 0.153739
3.48 0.167988
3.49 0.18277
3.5 0.197917
3.51 0.213265
3.52 0.228657
3.53 0.243899
3.54 0.258769
3.55 0.273092
3.56 0.286682
3.57 0.29932
3.58 0.310699
3.59 0.320786
3.6 0.329442
3.61 0.336552
3.62 0.341762
3.63 0.345243
3.64 0.346977
3.65 0.346963
3.66 0.345041
3.67 0.341393
3.68 0.336187
3.69 0.329534
3.7 0.321476
3.71 0.312177
3.72 0.301907
3.73 0.290835
3.74 0.279116
3.75 0.266906
3.76 0.254441
3.77 0.241875
3.78 0.229349
3.79 0.217031
3.8 0.205016
3.81 0.193388
3.82 0.182214
3.83 0.171605
3.84 0.161556
3.85 0.152053
3.86 0.14309
3.87 0.134684
3.88 0.126803
3.89 0.119365
3.9 0.112327
3.91 0.105655
3.92 0.0993278
3.93 0.0932639
3.94 0.0874314
3.95 0.0818058
3.96 0.0764005
3.97 0.0711823
3.98 0.0661576
3.99 0.0613432
4 0.056796
4.01 0.0525396
4.02 0.0486049
4.03 0.045038
4.04 0.0419226
4.05 0.0393201
4.06 0.0372406
4.07 0.0357253
4.08 0.0348324
4.09 0.0346472
4.1 0.0351098
4.11 0.036225
4.12 0.0379869
4.13 0.040473
4.14 0.0435522
4.15 0.0471812
4.16 0.0513091
4.17 0.0559211
4.18 0.0609071
4.19 0.0661776
4.2 0.0716587
4.21 0.0772801
4.22 0.082954
4.23 0.0886009
4.24 0.0941558
4.25 0.0995517
4.26 0.104711
4.27 0.109613
4.28 0.114224
4.29 0.118517
4.3 0.122421
4.31 0.125977
4.32 0.129185
4.33 0.132047
4.34 0.134531
4.35 0.136676
4.36 0.138504
4.37 0.140028
4.38 0.141233
4.39 0.142124
4.4 0.142726
4.41 0.143036
4.42 0.143032
4.43 0.142674
4.44 0.141978
4.45 0.140921
4.46 0.139478
4.47 0.137548
4.48 0.135165
4.49 0.132302
4.5 0.128931
4.51 0.124966
4.52 0.120429
4.53 0.115333
4.54 0.109677
4.55 0.103425
4.56 0.096598
4.57 0.0892691
4.58 0.0814756
4.59 0.0732487
4.6 0.0646252
4.61 0.0557166
4.62 0.046591
4.63 0.0373199
4.64 0.0279777
4.65 0.0186578
4.66 0.00943116
4.67 0.000364964
4.68 -0.00844562
4.69 -0.0169589
4.7 -0.0251416
4.71 -0.0329618
4.72 -0.0403657
4.73 -0.0473454
4.74 -0.053936
4.75 -0.0601533
4.76 -0.0660098
4.77 -0.0715249
4.78 -0.0767834
4.79 -0.0818361
4.8 -0.0867372
4.81 -0.0915379
4.82 -0.0963161
4.83 -0.101126
4.84 -0.106017
4.85 -0.111054
4.86 -0.116267
4.87 -0.121677
4.88 -0.127298
4.89 -0.133156
4.9 -0.13924
4.91 -0.145516
4.92 -0.151957
4.93 -0.158529
4.94 -0.165187
4.95 -0.171864
4.96 -0.178505
4.97 -0.185051
4.98 -0.191411
4.99 -0.197545
5 -0.203398
5.01 -0.20892
5.02 -0.214018
5.03 -0.218683
5.04 -0.222904
5.05 -0.226662
5.06 -0.229907
5.07 -0.232646
5.08 -0.234922
5.09 -0.236752
5.1 -0.23814
5.11 -0.239091
5.12 -0.239683
5.13 -0.239949
5.14 -0.239918
5.15 -0.239586
5.16 -0.239022
5.17 -0.238247
5.18 -0.237278
5.19 -0.2361
5.2 -0.234731
5.21 -0.23317
5.22 -0.231404
5.23 -0.229389
5.24 -0.227096
5.25 -0.22451
5.26 -0.221595
5.27 -0.218296
5.28 -0.214541
5.29 -0.210338
5.3 -0.205656
5.31 -0.200464
5.32 -0.194665
5.33 -0.188327
5.34 -0.18145
5.35 -0.174045
5.36 -0.166071
5.37 -0.157615
5.38 -0.148737
5.39 -0.139493
5.4 -0.129924
5.41 -0.120123
5.42 -0.11019
5.43 -0.100208
5.44 -0.090271
5.45 -0.0804886
5.46 -0.07094
5.47 -0.061707
5.48 -0.0528704
5.49 -0.0445754
5.5 -0.0368184
5.51 -0.0296478
5.52 -0.0231019
5.53 -0.0172939
5.54 -0.0121739
5.55 -0.00772184
5.56 -0.00392665
5.57 -0.000821039
5.58 0.00164688
5.59 0.00356342
5.6 0.00497748
5.61 0.00592378
5.62 0.0064485
5.63 0.00665989
5.64 0.00661863
5.65 0.00638269
5.66 0.00599871
5.67 0.00554447
5.68 0.00506606
5.69 0.00460361
5.7 0.00420085
5.71 0.00388159
5.72 0.00366146
5.73 0.00355085
5.74 0.00356377
5.75 0.00369371
5.76 0.00392351
5.77 0.00423944
5.78 0.00462667
5.79 0.00506395
5.8 0.00552226
5.81 0.00597902
5.82 0.00641132
5.83 0.00678846
5.84 0.00709585
5.85 0.00731684
5.86 0.00743745
5.87 0.00743072
5.88 0.00730004
5.89 0.0070446
5.9 0.0066634
5.91 0.00614701
5.92 0.00550415
5.93 0.00475001
5.94 0.00389323
5.95 0.00293941
5.96 0.00189742
5.97 0.000788784
5.98 -0.000374169
5.99 -0.0015792
6 -0.00281512
6.01 -0.00406324
6.02 -0.00531021
6.03 -0.00654226
6.04 -0.00773908
6.05 -0.00888638
6.06 -0.0099685
6.07 -0.0109677
6.08 -0.0118531
6.09 -0.0126025
6.1 -0.0131999
6.11 -0.0136204
6.12 -0.013825
6.13 -0.0137689
6.14 -0.0134448
6.15 -0.0128232
6.16 -0.0118685
6.17 -0.0105008
6.18 -0.00874077
6.19 -0.00656281
6.2 -0.00394404
6.21 -0.000800267
6.22 0.00283345
6.23 0.00695477
6.24 0.0115671
6.25 0.0167143
6.26 0.0223689
6.27 0.0284826
6.28 0.035032
6.29 0.0420083
6.3 0.0493856
6.31 0.0570801
6.32 0.0650446
6.33 0.0732307
6.34 0.0815957
6.35 0.0900535
6.36 0.0985464
6.37 0.107017
6.38 0.11539
6.39 0.123612
6.4 0.131636
6.41 0.139412
6.42 0.146867
6.43 0.153964
6.44 0.160692
6.45 0.167022
6.46 0.172908
6.47 0.17831
6.48 0.18326
6.49 0.18775
6.5 0.191768
6.51 0.195255
6.52 0.198277
6.53 0.200837
6.54 0.202937
6.55 0.204517
6.56 0.205633
6.57 0.206297
6.58 0.206507
6.59 0.206217
6.6 0.205442
6.61 0.204204
6.62 0.202499
6.63 0.200293
6.64 0.197562
6.65 0.19435
6.66 0.190655
6.67 0.186468
6.68 0.181737
6.69 0.176539
6.7 0.170888
6.71 0.164803
6.72 0.158253
6.73 0.151325
6.74 0.144063
6.75 0.13651
6.76 0.128694
6.77 0.120687
6.78 0.112561
6.79 0.104375
6.8 0.0961967
6.81 0.088102
6.82 0.080152
6.83 0.0724075
6.84 0.0649333
6.85 0.0578297
6.86 0.0511062
6.87 0.044805
6.88 0.0389623
6.89 0.0336802
6.9 0.0289215
6.91 0.02469
6.92 0.0209913
6.93 0.0178777
6.94 0.0153151
6.95 0.0132575
6.96 0.0116847
6.97 0.0105997
6.98 0.00998431
6.99 0.0097642
7 0.00990824
7.01 0.0103921
7.02 0.0112145
7.03 0.0123021
7.04 0.0136283
7.05 0.0151687
7.06 0.0169265
7.07 0.0188563
7.08 0.0209396
7.09 0.023163
7.1 0.0255274
7.11 0.0280151
7.12 0.0306098
7.13 0.0333022
7.14 0.0360869
7.15 0.0389522
7.16 0.0418751
7.17 0.0448384
7.18 0.0478211
7.19 0.0507938
7.2 0.0537253
7.21 0.0565829
7.22 0.0593306
7.23 0.0619017
7.24 0.0642685
7.25 0.06639
7.26 0.0682225
7.27 0.0696834
7.28 0.0707414
7.29 0.0713774
7.3 0.0715581
7.31 0.0712215
7.32 0.0703282
7.33 0.0689114
7.34 0.066966
7.35 0.0644816
7.36 0.0614176
7.37 0.0578668
7.38 0.0538598
7.39 0.0494348
7.4 0.0445896
7.41 0.0394326
7.42 0.0340261
7.43 0.0284307
7.44 0.0227024
7.45 0.0169219
7.46 0.0111574
7.47 0.00546787
7.48 -7.85429e-05
7.49 -0.0054179
7.5 -0.0105211
7.51 -0.0153526
7.52 -0.0198758
7.53 -0.0240351
7.54 -0.0278615
7.55 -0.0313536
7.56 -0.034517
7.57 -0.0373201
7.58 -0.039828
7.59 -0.0420695
7.6 -0.044073
7.61 -0.0458506
7.62 -0.0474521
7.63 -0.0489199
7.64 -0.0502848
7.65 -0.0515719
7.66 -0.0528094
7.67 -0.0540232
7.68 -0.0552284
7.69 -0.0564351
7.7 -0.057649
7.71 -0.058868
7.72 -0.0600857
7.73 -0.0612921
7.74 -0.0624673
7.75 -0.0635963
7.76 -0.0646609
7.77 -0.0656426
7.78 -0.0665102
7.79 -0.0672506
7.8 -0.0678556
7.81 -0.0683151
7.82 -0.0686119
7.83 -0.0687417
7.84 -0.0687227
7.85 -0.0685639
7.86 -0.0682758
7.87 -0.0678697
7.88 -0.0673843
7.89 -0.0668455
7.9 -0.0662816
7.91 -0.065727
7.92 -0.0652147
7.93 -0.0647731
7.94 -0.0644294
7.95 -0.0642237
7.96 -0.0641719
7.97 -0.0642829
7.98 -0.0645671
7.99 -0.0650428
8 -0.0657121
8.01 -0.0665526
8.02 -0.0675532
8.03 -0.0687024
8.04 -0.0699893
8.05 -0.0713734
8.06 -0.0728305
8.07 -0.0743358
8.08 -0.0758647
8.09 -0.0773878
8.1 -0.0788849
8.11 -0.0803388
8.12 -0.0817288
8.13 -0.0830494
8.14 -0.0843006
8.15 -0.085485
8.16 -0.0866057
8.17 -0.0876767
8.18 -0.0887194
8.19 -0.0897528
8.2 -0.0907996
8.21 -0.091889
8.22 -0.0930406
8.23 -0.0942746
8.24 -0.0956084
8.25 -0.0970748
8.26 -0.0986653
8.27 -0.10038
8.28 -0.102215
8.29 -0.104166
8.3 -0.106203
8.31 -0.108292
8.32 -0.110397
8.33 -0.112471
8.34 -0.114456
8.35 -0.116304
8.36 -0.117958
8.37 -0.119353
8.38 -0.120397
8.39 -0.121068
8.4 -0.121318
8.41 -0.121104
8.42 -0.120305
8.43 -0.118968
8.44 -0.117078
8.45 -0.114627
8.46 -0.111555
8.47 -0.107921
8.48 -0.103776
8.49 -0.0991573
8.5 -0.0940822
8.51 -0.0886146
8.52 -0.0828522
8.53 -0.0768623
8.54 -0.0707131
8.55 -0.0644828
8.56 -0.0582606
8.57 -0.0521164
8.58 -0.0461164
8.59 -0.0403623
8.6 -0.0348816
8.61 -0.029718
8.62 -0.0249071
8.63 -0.0205228
8.64 -0.016555
8.65 -0.0129929
8.66 -0.00983382
8.67 -0.00709621
8.68 -0.00475913
8.69 -0.00276549
8.7 -0.001086
8.71 0.000302053
8.72 0.00141767
8.73 0.00232758
8.74 0.00306353
8.75 0.00365447
8.76 0.00410987
8.77 0.00447024
8.78 0.0047492
8.79 0.00495463
8.8 0.00507993
8.81 0.00512581
8.82 0.00508545
8.83 0.00494516
8.84 0.00467729
8.85 0.00425882
8.86 0.00367978
8.87 0.0029214
8.88 0.0019585
8.89 0.000759188
8.9 -0.000659837
8.91 -0.00230024
8.92 -0.0041574
8.93 -0.00624953
8.94 -0.00852108
8.95 -0.0109437
8.96 -0.0134824
8.97 -0.0160992
8.98 -0.0187329
8.99 -0.0213289
9 -0.0238324
9.01 -0.0261709
9.02 -0.0282782
9.03 -0.0301143
9.04 -0.0316309
9.05 -0.0327682
9.06 -0.0334541
9.07 -0.0337075
9.08 -0.0335125
9.09 -0.0328621
9.1 -0.0316923
9.11 -0.0300929
9.12 -0.0280919
9.13 -0.0257262
9.14 -0.023009
9.15 -0.0200296
9.16 -0.0168603
9.17 -0.013565
9.18 -0.0102109
9.19 -0.00687829
9.2 -0.00363496
9.21 -0.000541439
9.22 0.00233587
9.23 0.0049222
9.24 0.00720548
9.25 0.00915727
9.26 0.0107577
9.27 0.0119434
9.28 0.0127752
9.29 0.0132676
9.3 0.0134446
9.31 0.0133078
9.32 0.0129283
9.33 0.0123624
9.34 0.0116598
9.35 0.0108696
9.36 0.0100552
9.37 0.00927224
9.38 0.00856782
9.39 0.0079916
9.4 0.00759709
9.41 0.00739687
9.42 0.00741114
9.43 0.00765346
9.44 0.0081627
9.45 0.00889757
9.46 0.00984551
9.47 0.0109879
9.48 0.0123188
9.49 0.0137902
9.5 0.0153654
9.51 0.017013
9.52 0.0187029
9.53 0.0204008
9.54 0.0220799
9.55 0.023721
9.56 0.0253079
9.57 0.0268292
9.58 0.0282934
9.59 0.0297096
9.6 0.0310936
9.61 0.0324706
9.62 0.0338744
9.63 0.0353389
9.64 0.036901
9.65 0.0386217
9.66 0.0405328
9.67 0.0426663
9.68 0.0450559
9.69 0.0477573
9.7 0.0507921
9.71 0.0541519
9.72 0.0578408
9.73 0.0618686
9.74 0.0662363
9.75 0.0708802
9.76 0.0757634
9.77 0.0808415
9.78 0.0860715
9.79 0.0913636
9.8 0.0966506
9.81 0.101862
9.82 0.106897
9.83 0.111687
9.84 0.116168
9.85 0.120274
9.86 0.123903
9.87 0.127
9.88 0.129558
9.89 0.131544
9.9 0.132909
9.91 0.133605
9.92 0.133702
9.93 0.133218
9.94 0.13217
9.95 0.130527
9.96 0.128416
9.97 0.125888
9.98 0.122999
9.99 0.119775
10 0.116316
10.01 0.112691
10.02 0.108957
10.03 0.105168
10.04 0.101381
10.05 0.0976401
10.06 0.0939788
10.07 0.0904287
10.08 0.0870166
10.09 0.0837371
10.1 0.0805894
10.11 0.0775668
10.12 0.0746671
10.13 0.0718509
10.14 0.0690932
10.15 0.0663661
10.16 0.0636366
10.17 0.0608713
10.18 0.0580425
10.19 0.0551254
10.2 0.0520866
10.21 0.0489097
10.22 0.0455924
10.23 0.0421301
10.24 0.0385171
10.25 0.0347552
10.26 0.0308739
10.27 0.0268922
10.28 0.0228326
10.29 0.0187191
10.3 0.0145913
10.31 0.0104793
10.32 0.00641314
10.33 0.00243519
10.34 -0.00143245
10.35 -0.00516929
10.36 -0.0087566
10.37 -0.0121639
10.38 -0.0153855
10.39 -0.0184298
10.4 -0.0212993
10.41 -0.0239927
10.42 -0.0265163
10.43 -0.0289039
10.44 -0.0311749
10.45 -0.033349
10.46 -0.0354424
10.47 -0.03749
10.48 -0.0395123
10.49 -0.0415279
10.5 -0.043555
10.51 -0.0456053
10.52 -0.0476847
10.53 -0.0497946
10.54 -0.0519335
10.55 -0.0540898
10.56 -0.0562475
10.57 -0.0583882
10.58 -0.0604864
10.59 -0.0625095
10.6 -0.064435
10.61 -0.0662353
10.62 -0.0678806
10.63 -0.0693178
10.64 -0.0705474
10.65 -0.0715501
10.66 -0.0723109
10.67 -0.0727844
10.68 -0.0729945
10.69 -0.0729497
10.7 -0.0726579
10.71 -0.0721118
10.72 -0.0713419
10.73 -0.0703874
10.74 -0.0692763
10.75 -0.0680342
10.76 -0.0666958
10.77 -0.0653067
10.78 -0.0638998
10.79 -0.062507
10.8 -0.0611666
10.81 -0.0598993
10.82 -0.0587243
10.83 -0.057656
10.84 -0.0567197
10.85 -0.0559044
10.86 -0.0552032
10.87 -0.0546065
10.88 -0.0541067
10.89 -0.0536775
10.9 -0.0532902
10.91 -0.0529191
10.92 -0.0525351
10.93 -0.0521041
10.94 -0.0516021
10.95 -0.0510055
10.96 -0.0502914
10.97 -0.0494255
10.98 -0.048415
10.99 -0.0472557
11 -0.0459492
11.01 -0.0444854
11.02 -0.0428976
11.03 -0.0412095
11.04 -0.0394468
11.05 -0.0376383
11.06 -0.0358255
11.07 -0.0340468
11.08 -0.032339
11.09 -0.030747
11.1 -0.0293178
11.11 -0.0280708
11.12 -0.0270331
11.13 -0.0262315
11.14 -0.0257137
11.15 -0.0254539
11.16 -0.0254529
11.17 -0.0257042
11.18 -0.0262252
11.19 -0.0269628
11.2 -0.0278843
11.21 -0.0289564
11.22 -0.0301487
11.23 -0.0314079
11.24 -0.0326844
11.25 -0.0339347
11.26 -0.0351087
11.27 -0.0361541
11.28 -0.0370423
11.29 -0.0377412
11.3 -0.038219
11.31 -0.0384253
11.32 -0.0383791
11.33 -0.0380758
11.34 -0.0375175
11.35 -0.0366805
11.36 -0.0356144
11.37 -0.0343464
11.38 -0.0329045
11.39 -0.0313095
11.4 -0.0296088
11.41 -0.0278469
11.42 -0.0260607
11.43 -0.024289
11.44 -0.0225737
11.45 -0.0209428
11.46 -0.0194222
11.47 -0.0180368
11.48 -0.0168212
11.49 -0.0157658
11.5 -0.0148737
11.51 -0.0141429
11.52 -0.0135867
11.53 -0.0131712
11.54 -0.012877
11.55 -0.0126845
11.56 -0.0125778
11.57 -0.0125262
11.58 -0.0125029
11.59 -0.0124865
11.6 -0.0124554
11.61 -0.0123899
11.62 -0.0122797
11.63 -0.0121176
11.64 -0.0118991
11.65 -0.0116215
11.66 -0.0113003
11.67 -0.010948
11.68 -0.0105811
11.69 -0.0102235
11.7 -0.00990071
11.71 -0.00963764
11.72 -0.00946004
11.73 -0.00940798
11.74 -0.00950409
11.75 -0.00976359
11.76 -0.0102048
11.77 -0.010856
11.78 -0.0117336
11.79 -0.0128222
11.8 -0.0141193
11.81 -0.015622
11.82 -0.017334
11.83 -0.0192085
11.84 -0.0212206
11.85 -0.0233413
11.86 -0.0255443
11.87 -0.0277794
11.88 -0.0300087
11.89 -0.0321947
11.9 -0.0342878
11.91 -0.0362509
11.92 -0.0380563
11.93 -0.0396746
