[DEFAULT]

version = diffpy.pdfgetx-2.2.1

# input and output specifications
dataformat = twotheta
inputfile = Synthetic_CSH_600degC_normalized.chi
backgroundfiles = quartz_030degC_normalized.chi
outputtype = gr

# PDF calculation setup
mode = xray
wavelength = 0.2113
twothetazero = 0
composition = CaO SiO2
bgscales = 1.0
rpoly = 0.9
qmaxinst = 23.7031
qmin = 0.5
qmax = 20
rmin = 0
rmax = 60
rstep = 0.01

# End of config --------------------------------------------------------------

#### start data
#S 1
#L r(Å)  G(Å$^{-2}$)
0 0
0.01 -0.00284314
0.02 -0.00558101
0.03 -0.00812443
0.04 -0.01039
0.05 -0.012252
0.06 -0.0136672
0.07 -0.0146027
0.08 -0.0150257
0.09 -0.0148761
0.1 -0.0141572
0.11 -0.0129323
0.12 -0.0112384
0.13 -0.00911337
0.14 -0.00660966
0.15 -0.00385646
0.16 -0.000943883
0.17 0.00203143
0.18 0.00494697
0.19 0.00769624
0.2 0.0101816
0.21 0.0123113
0.22 0.01394
0.23 0.0150248
0.24 0.0155307
0.25 0.0154215
0.26 0.0146268
0.27 0.0131542
0.28 0.01108
0.29 0.0084502
0.3 0.00531251
0.31 0.00173658
0.32 -0.00211874
0.33 -0.00613735
0.34 -0.0101925
0.35 -0.014113
0.36 -0.0177598
0.37 -0.0209944
0.38 -0.0236822
0.39 -0.0255973
0.4 -0.0266662
0.41 -0.0268163
0.42 -0.0259668
0.43 -0.0239641
0.44 -0.0207737
0.45 -0.0164688
0.46 -0.0110654
0.47 -0.00455953
0.48 0.0030404
0.49 0.0115188
0.5 0.020761
0.51 0.0306358
0.52 0.0410406
0.53 0.0517176
0.54 0.0624927
0.55 0.0731872
0.56 0.0835657
0.57 0.0934482
0.58 0.102677
0.59 0.111094
0.6 0.118462
0.61 0.124643
0.62 0.129609
0.63 0.133279
0.64 0.135532
0.65 0.136236
0.66 0.135543
0.67 0.133471
0.68 0.130052
0.69 0.125168
0.7 0.119107
0.71 0.111963
0.72 0.103845
0.73 0.0947772
0.74 0.0849791
0.75 0.0746037
0.76 0.0637738
0.77 0.0525894
0.78 0.0411875
0.79 0.0296909
0.8 0.0181884
0.81 0.00676315
0.82 -0.00450289
0.83 -0.0155738
0.84 -0.0264164
0.85 -0.0370076
0.86 -0.0472995
0.87 -0.0573331
0.88 -0.0671172
0.89 -0.076666
0.9 -0.0859703
0.91 -0.095071
0.92 -0.10399
0.93 -0.112737
0.94 -0.121304
0.95 -0.129689
0.96 -0.13789
0.97 -0.145886
0.98 -0.153631
0.99 -0.161062
1 -0.168157
1.01 -0.174859
1.02 -0.181107
1.03 -0.186757
1.04 -0.191821
1.05 -0.196244
1.06 -0.199977
1.07 -0.202882
1.08 -0.205004
1.09 -0.206355
1.1 -0.206943
1.11 -0.20673
1.12 -0.205786
1.13 -0.20423
1.14 -0.202148
1.15 -0.199628
1.16 -0.196791
1.17 -0.193817
1.18 -0.190846
1.19 -0.188028
1.2 -0.185575
1.21 -0.183601
1.22 -0.182237
1.23 -0.181602
1.24 -0.181916
1.25 -0.183176
1.26 -0.185398
1.27 -0.188596
1.28 -0.192828
1.29 -0.198001
1.3 -0.203946
1.31 -0.210525
1.32 -0.217582
1.33 -0.224886
1.34 -0.232154
1.35 -0.239127
1.36 -0.245518
1.37 -0.250874
1.38 -0.254999
1.39 -0.257607
1.4 -0.258423
1.41 -0.256889
1.42 -0.252964
1.43 -0.246523
1.44 -0.237423
1.45 -0.225306
1.46 -0.210202
1.47 -0.192323
1.48 -0.171754
1.49 -0.148513
1.5 -0.122723
1.51 -0.0949237
1.52 -0.0654394
1.53 -0.0346276
1.54 -0.00285144
1.55 0.0292586
1.56 0.0612275
1.57 0.092566
1.58 0.122562
1.59 0.15078
1.6 0.176784
1.61 0.200129
1.62 0.220084
1.63 0.236313
1.64 0.248728
1.65 0.257092
1.66 0.260994
1.67 0.260102
1.68 0.254851
1.69 0.245297
1.7 0.231504
1.71 0.213187
1.72 0.191219
1.73 0.165927
1.74 0.137685
1.75 0.106629
1.76 0.0735572
1.77 0.0390085
1.78 0.00347202
1.79 -0.0325595
1.8 -0.0684981
1.81 -0.103857
1.82 -0.138202
1.83 -0.171029
1.84 -0.201834
1.85 -0.230474
1.86 -0.256699
1.87 -0.280268
1.88 -0.300675
1.89 -0.318232
1.9 -0.33292
1.91 -0.344769
1.92 -0.353493
1.93 -0.359547
1.94 -0.363155
1.95 -0.364504
1.96 -0.363621
1.97 -0.36084
1.98 -0.356509
1.99 -0.350851
2 -0.344025
2.01 -0.336221
2.02 -0.327718
2.03 -0.318658
2.04 -0.309152
2.05 -0.299251
2.06 -0.28906
2.07 -0.278592
2.08 -0.267834
2.09 -0.256693
2.1 -0.24513
2.11 -0.233069
2.12 -0.220409
2.13 -0.206965
2.14 -0.192639
2.15 -0.177374
2.16 -0.161081
2.17 -0.143622
2.18 -0.124893
2.19 -0.104993
2.2 -0.0839374
2.21 -0.0617553
2.22 -0.038427
2.23 -0.0142363
2.24 0.0106515
2.25 0.0360383
2.26 0.0616973
2.27 0.0872994
2.28 0.112555
2.29 0.137163
2.3 0.160682
2.31 0.182779
2.32 0.203204
2.33 0.221655
2.34 0.237694
2.35 0.250923
2.36 0.26135
2.37 0.268793
2.38 0.273041
2.39 0.273609
2.4 0.2709
2.41 0.264929
2.42 0.255762
2.43 0.243098
2.44 0.227513
2.45 0.209287
2.46 0.188683
2.47 0.165822
2.48 0.141194
2.49 0.115279
2.5 0.0884587
2.51 0.0611172
2.52 0.0337217
2.53 0.00670164
2.54 -0.0195676
2.55 -0.0446959
2.56 -0.0681363
2.57 -0.0897646
2.58 -0.109329
2.59 -0.12662
2.6 -0.141102
2.61 -0.15296
2.62 -0.162181
2.63 -0.168755
2.64 -0.17246
2.65 -0.17353
2.66 -0.17225
2.67 -0.168801
2.68 -0.163287
2.69 -0.155947
2.7 -0.147239
2.71 -0.137451
2.72 -0.126873
2.73 -0.115806
2.74 -0.104647
2.75 -0.0936858
2.76 -0.0831986
2.77 -0.0735806
2.78 -0.0649915
2.79 -0.0576116
2.8 -0.0515997
2.81 -0.0472461
2.82 -0.0445686
2.83 -0.0435198
2.84 -0.0440972
2.85 -0.0463601
2.86 -0.0502556
2.87 -0.0555157
2.88 -0.0619918
2.89 -0.0695317
2.9 -0.0779941
2.91 -0.0870277
2.92 -0.0964035
2.93 -0.105887
2.94 -0.115188
2.95 -0.124063
2.96 -0.132292
2.97 -0.13967
2.98 -0.145878
2.99 -0.150778
3 -0.154294
3.01 -0.156319
3.02 -0.156665
3.03 -0.155238
3.04 -0.152177
3.05 -0.147505
3.06 -0.141231
3.07 -0.133293
3.08 -0.124008
3.09 -0.113505
3.1 -0.101934
3.11 -0.0893509
3.12 -0.0760756
3.13 -0.0623017
3.14 -0.0482131
3.15 -0.033997
3.16 -0.0198653
3.17 -0.00598562
3.18 0.00749301
3.19 0.0203925
3.2 0.032565
3.21 0.0439751
3.22 0.0545577
3.23 0.0642443
3.24 0.0729242
3.25 0.0807217
3.26 0.0876668
3.27 0.0938081
3.28 0.099113
3.29 0.103778
3.3 0.107906
3.31 0.111603
3.32 0.114953
3.33 0.118107
3.34 0.12119
3.35 0.124305
3.36 0.127564
3.37 0.131075
3.38 0.134891
3.39 0.13907
3.4 0.143661
3.41 0.148732
3.42 0.154226
3.43 0.160128
3.44 0.166402
3.45 0.173037
3.46 0.179914
3.47 0.18695
3.48 0.194055
3.49 0.201119
3.5 0.208024
3.51 0.214669
3.52 0.220952
3.53 0.226734
3.54 0.231898
3.55 0.236405
3.56 0.240184
3.57 0.243153
3.58 0.245182
3.59 0.24635
3.6 0.246647
3.61 0.246079
3.62 0.244543
3.63 0.242205
3.64 0.239121
3.65 0.235355
3.66 0.230919
3.67 0.225946
3.68 0.22055
3.69 0.214821
3.7 0.208834
3.71 0.202692
3.72 0.196495
3.73 0.190318
3.74 0.184232
3.75 0.178316
3.76 0.1726
3.77 0.167116
3.78 0.161882
3.79 0.156945
3.8 0.152261
3.81 0.147807
3.82 0.143557
3.83 0.139485
3.84 0.13553
3.85 0.13163
3.86 0.127734
3.87 0.123777
3.88 0.119692
3.89 0.115435
3.9 0.11096
3.91 0.106218
3.92 0.10115
3.93 0.0957705
3.94 0.0900733
3.95 0.0840631
3.96 0.0777149
3.97 0.0711085
3.98 0.0642895
3.99 0.0573133
4 0.0502433
4.01 0.0431745
4.02 0.0361944
4.03 0.0293927
4.04 0.0228908
4.05 0.0168057
4.06 0.0112072
4.07 0.00618637
4.08 0.0018571
4.09 -0.001624
4.1 -0.00427376
4.11 -0.00603526
4.12 -0.00686358
4.13 -0.00657244
4.14 -0.00529476
4.15 -0.00303559
4.16 0.000187782
4.17 0.00444689
4.18 0.00961379
4.19 0.0155832
4.2 0.0222764
4.21 0.0296437
4.22 0.0375643
4.23 0.0458756
4.24 0.0544594
4.25 0.0631935
4.26 0.0719324
4.27 0.0805368
4.28 0.0888842
4.29 0.0968566
4.3 0.104249
4.31 0.111023
4.32 0.117091
4.33 0.122374
4.34 0.126697
4.35 0.13007
4.36 0.132496
4.37 0.133956
4.38 0.134371
4.39 0.133756
4.4 0.132219
4.41 0.129804
4.42 0.126535
4.43 0.122431
4.44 0.117669
4.45 0.112332
4.46 0.106511
4.47 0.100256
4.48 0.0937343
4.49 0.0870431
4.5 0.0802757
4.51 0.0735337
4.52 0.0669114
4.53 0.0604816
4.54 0.0543093
4.55 0.0484791
4.56 0.0430422
4.57 0.0380024
4.58 0.033378
4.59 0.029193
4.6 0.0254723
4.61 0.0221467
4.62 0.0191877
4.63 0.0165584
4.64 0.0142499
4.65 0.0121586
4.66 0.0102265
4.67 0.00839284
4.68 0.00659178
4.69 0.00474849
4.7 0.00280197
4.71 0.00069556
4.72 -0.0016444
4.73 -0.00427126
4.74 -0.00720488
4.75 -0.0104747
4.76 -0.0141178
4.77 -0.0181752
4.78 -0.0226055
4.79 -0.0274014
4.8 -0.0325485
4.81 -0.0380695
4.82 -0.0438784
4.83 -0.0499378
4.84 -0.0562059
4.85 -0.0626513
4.86 -0.0692045
4.87 -0.0758106
4.88 -0.0824211
4.89 -0.088981
4.9 -0.0954375
4.91 -0.101754
4.92 -0.107895
4.93 -0.113818
4.94 -0.119477
4.95 -0.124877
4.96 -0.130005
4.97 -0.134852
4.98 -0.13937
4.99 -0.143605
5 -0.147564
5.01 -0.151255
5.02 -0.154656
5.03 -0.157805
5.04 -0.160722
5.05 -0.163418
5.06 -0.165884
5.07 -0.168132
5.08 -0.170179
5.09 -0.172027
5.1 -0.173662
5.11 -0.175061
5.12 -0.176236
5.13 -0.177172
5.14 -0.17785
5.15 -0.178206
5.16 -0.178261
5.17 -0.177991
5.18 -0.177377
5.19 -0.17635
5.2 -0.174926
5.21 -0.173104
5.22 -0.170876
5.23 -0.168205
5.24 -0.1651
5.25 -0.161602
5.26 -0.15773
5.27 -0.153493
5.28 -0.148907
5.29 -0.144051
5.3 -0.13897
5.31 -0.133712
5.32 -0.128324
5.33 -0.122886
5.34 -0.117458
5.35 -0.1121
5.36 -0.106894
5.37 -0.10189
5.38 -0.0971371
5.39 -0.0926805
5.4 -0.0885938
5.41 -0.0849097
5.42 -0.0816263
5.43 -0.0787582
5.44 -0.0763317
5.45 -0.0743671
5.46 -0.0728027
5.47 -0.071615
5.48 -0.0707758
5.49 -0.070283
5.5 -0.0700394
5.51 -0.069994
5.52 -0.0700923
5.53 -0.0702809
5.54 -0.0704849
5.55 -0.070645
5.56 -0.0707062
5.57 -0.070599
5.58 -0.0702714
5.59 -0.0696949
5.6 -0.0688367
5.61 -0.0676545
5.62 -0.066109
5.63 -0.0642271
5.64 -0.0620096
5.65 -0.0594612
5.66 -0.0565586
5.67 -0.053375
5.68 -0.0499415
5.69 -0.0462939
5.7 -0.0424556
5.71 -0.0384946
5.72 -0.0344616
5.73 -0.0304033
5.74 -0.0263723
5.75 -0.022421
5.76 -0.0185891
5.77 -0.0149147
5.78 -0.0114436
5.79 -0.0082221
5.8 -0.00525116
5.81 -0.00254777
5.82 -0.000126927
5.83 0.00196689
5.84 0.00377664
5.85 0.0053087
5.86 0.00657405
5.87 0.00755695
5.88 0.00830617
5.89 0.00885112
5.9 0.00921657
5.91 0.00941724
5.92 0.00948969
5.93 0.00947135
5.94 0.00938936
5.95 0.00926949
5.96 0.00914051
5.97 0.00902852
5.98 0.00895436
5.99 0.00893776
6 0.00900722
6.01 0.00916722
6.02 0.00942898
6.03 0.00980162
6.04 0.0103088
6.05 0.0109434
6.06 0.0117054
6.07 0.0125965
6.08 0.0136295
6.09 0.0147995
6.1 0.0160966
6.11 0.0175182
6.12 0.0190681
6.13 0.0207478
6.14 0.0225409
6.15 0.0244429
6.16 0.0264507
6.17 0.0285712
6.18 0.030784
6.19 0.0330832
6.2 0.0354625
6.21 0.0379241
6.22 0.0404516
6.23 0.0430356
6.24 0.045668
6.25 0.0483435
6.26 0.0510505
6.27 0.0537778
6.28 0.0565167
6.29 0.0592581
6.3 0.0619919
6.31 0.0647101
6.32 0.0674055
6.33 0.0700709
6.34 0.0726951
6.35 0.0752779
6.36 0.0778157
6.37 0.0803057
6.38 0.0827391
6.39 0.0851207
6.4 0.0874518
6.41 0.0897334
6.42 0.0919621
6.43 0.0941419
6.44 0.0962778
6.45 0.0983717
6.46 0.100423
6.47 0.102432
6.48 0.104402
6.49 0.106334
6.5 0.108226
6.51 0.11007
6.52 0.111869
6.53 0.113617
6.54 0.115311
6.55 0.116934
6.56 0.118487
6.57 0.119962
6.58 0.121353
6.59 0.122642
6.6 0.123824
6.61 0.124898
6.62 0.125857
6.63 0.12669
6.64 0.127385
6.65 0.127954
6.66 0.128393
6.67 0.128702
6.68 0.128867
6.69 0.128908
6.7 0.12883
6.71 0.128637
6.72 0.128321
6.73 0.127902
6.74 0.127389
6.75 0.126788
6.76 0.126096
6.77 0.125323
6.78 0.124477
6.79 0.123562
6.8 0.122573
6.81 0.121508
6.82 0.120372
6.83 0.11916
6.84 0.117865
6.85 0.116471
6.86 0.114981
6.87 0.113388
6.88 0.111682
6.89 0.109839
6.9 0.107865
6.91 0.105756
6.92 0.103508
6.93 0.101103
6.94 0.0985467
6.95 0.0958509
6.96 0.0930205
6.97 0.090056
6.98 0.0869667
6.99 0.0837788
7 0.0805088
7.01 0.0771744
7.02 0.0737949
7.03 0.0704003
7.04 0.0670135
7.05 0.0636573
7.06 0.060365
7.07 0.0571539
7.08 0.0540423
7.09 0.0510472
7.1 0.0481975
7.11 0.0454993
7.12 0.0429513
7.13 0.0405558
7.14 0.0383208
7.15 0.0362435
7.16 0.034299
7.17 0.0324733
7.18 0.0307512
7.19 0.0291182
7.2 0.0275387
7.21 0.0259888
7.22 0.0244441
7.23 0.0228739
7.24 0.0212545
7.25 0.0195647
7.26 0.0177852
7.27 0.0158874
7.28 0.0138621
7.29 0.0117079
7.3 0.00942092
7.31 0.00699378
7.32 0.00442969
7.33 0.00175174
7.34 -0.00102557
7.35 -0.00388577
7.36 -0.00681026
7.37 -0.00976466
7.38 -0.0127232
7.39 -0.0156594
7.4 -0.0185352
7.41 -0.0213279
7.42 -0.0240138
7.43 -0.0265706
7.44 -0.0289609
7.45 -0.0311744
7.46 -0.0332074
7.47 -0.0350523
7.48 -0.0366927
7.49 -0.0381249
7.5 -0.0393724
7.51 -0.0404445
7.52 -0.0413497
7.53 -0.0420908
7.54 -0.0427072
7.55 -0.0432185
7.56 -0.0436452
7.57 -0.0440016
7.58 -0.0443192
7.59 -0.0446174
7.6 -0.0449135
7.61 -0.0452252
7.62 -0.0455656
7.63 -0.0459425
7.64 -0.0463616
7.65 -0.0468283
7.66 -0.0473427
7.67 -0.0478963
7.68 -0.0484826
7.69 -0.0490934
7.7 -0.0497177
7.71 -0.050341
7.72 -0.0509511
7.73 -0.051536
7.74 -0.0520768
7.75 -0.0525672
7.76 -0.0529989
7.77 -0.0533654
7.78 -0.053654
7.79 -0.0538668
7.8 -0.0540083
7.81 -0.0540817
7.82 -0.0540884
7.83 -0.0540366
7.84 -0.0539412
7.85 -0.0538127
7.86 -0.0536623
7.87 -0.0535024
7.88 -0.0533467
7.89 -0.0532056
7.9 -0.0530884
7.91 -0.0530083
7.92 -0.0529667
7.93 -0.0529663
7.94 -0.0530078
7.95 -0.0530935
7.96 -0.0532158
7.97 -0.0533662
7.98 -0.0535362
7.99 -0.0537159
8 -0.0538922
8.01 -0.054053
8.02 -0.054187
8.03 -0.0542817
8.04 -0.0543215
8.05 -0.0543039
8.06 -0.0542233
8.07 -0.0540764
8.08 -0.0538523
8.09 -0.0535637
8.1 -0.0532166
8.11 -0.052819
8.12 -0.0523784
8.13 -0.0519123
8.14 -0.0514373
8.15 -0.050969
8.16 -0.0505265
8.17 -0.0501295
8.18 -0.0497908
8.19 -0.0495239
8.2 -0.0493433
8.21 -0.0492676
8.22 -0.0492907
8.23 -0.0494139
8.24 -0.0496351
8.25 -0.0499609
8.26 -0.0503659
8.27 -0.0508351
8.28 -0.051351
8.29 -0.0518939
8.3 -0.0524352
8.31 -0.0529497
8.32 -0.0534122
8.33 -0.0537902
8.34 -0.054054
8.35 -0.0541888
8.36 -0.0541752
8.37 -0.0539911
8.38 -0.0536066
8.39 -0.053036
8.4 -0.0522771
8.41 -0.0513324
8.42 -0.0501827
8.43 -0.0488693
8.44 -0.0474101
8.45 -0.0458258
8.46 -0.0441317
8.47 -0.0423657
8.48 -0.0405603
8.49 -0.0387439
8.5 -0.0369481
8.51 -0.0352055
8.52 -0.0335379
8.53 -0.0319665
8.54 -0.0305134
8.55 -0.0292043
8.56 -0.0280318
8.57 -0.0269981
8.58 -0.0261007
8.59 -0.0253508
8.6 -0.0247141
8.61 -0.0241733
8.62 -0.0237082
8.63 -0.0232991
8.64 -0.0229134
8.65 -0.0225235
8.66 -0.0221043
8.67 -0.0216257
8.68 -0.0210616
8.69 -0.0203988
8.7 -0.0196234
8.71 -0.0187203
8.72 -0.0176739
8.73 -0.016501
8.74 -0.0152081
8.75 -0.0138067
8.76 -0.0123014
8.77 -0.0107304
8.78 -0.0091185
8.79 -0.00749311
8.8 -0.00588868
8.81 -0.00433844
8.82 -0.0028707
8.83 -0.00151311
8.84 -0.000303475
8.85 0.000732515
8.86 0.00158998
8.87 0.00225768
8.88 0.00272186
8.89 0.00296763
8.9 0.00302618
8.91 0.00291071
8.92 0.00263972
8.93 0.00221992
8.94 0.00170419
8.95 0.00112457
8.96 0.000515349
8.97 -8.27865e-05
8.98 -0.000629128
8.99 -0.00108986
9 -0.00143295
9.01 -0.00161551
9.02 -0.00160905
9.03 -0.0014075
9.04 -0.000998411
9.05 -0.000366384
9.06 0.000504296
9.07 0.00158005
9.08 0.00284689
9.09 0.00428561
9.1 0.00589022
9.11 0.00760461
9.12 0.00939591
9.13 0.0112292
9.14 0.013065
9.15 0.0148615
9.16 0.0165848
9.17 0.0182035
9.18 0.0196765
9.19 0.020977
9.2 0.0220987
9.21 0.0230302
9.22 0.0237576
9.23 0.0242679
9.24 0.0245925
9.25 0.024745
9.26 0.0247437
9.27 0.0245958
9.28 0.0243522
9.29 0.0240425
9.3 0.0236981
9.31 0.023354
9.32 0.0230458
9.33 0.022802
9.34 0.0226482
9.35 0.0226174
9.36 0.022729
9.37 0.0229853
9.38 0.0233925
9.39 0.0239577
9.4 0.024685
9.41 0.0255457
9.42 0.0265239
9.43 0.0276006
9.44 0.0287601
9.45 0.0299623
9.46 0.0311803
9.47 0.032387
9.48 0.0335479
9.49 0.0346381
9.5 0.0356375
9.51 0.0365278
9.52 0.0372832
9.53 0.0378941
9.54 0.0383659
9.55 0.0386996
9.56 0.0388954
9.57 0.0389573
9.58 0.0389155
9.59 0.0387885
9.6 0.038597
9.61 0.0383614
9.62 0.0381146
9.63 0.0378801
9.64 0.0376804
9.65 0.0375456
9.66 0.0374905
9.67 0.0375268
9.68 0.0376643
9.69 0.0379178
9.7 0.0382861
9.71 0.0387567
9.72 0.0393205
9.73 0.0399674
9.74 0.0406817
9.75 0.0414347
9.76 0.0422044
9.77 0.0429674
9.78 0.0436925
9.79 0.0443589
9.8 0.0449458
9.81 0.0454345
9.82 0.0457932
9.83 0.0460199
9.84 0.0461114
9.85 0.0460651
9.86 0.0458712
9.87 0.04554
9.88 0.0450923
9.89 0.0445427
9.9 0.0439055
9.91 0.0432
9.92 0.0424564
9.93 0.0416962
9.94 0.0409407
9.95 0.0402159
9.96 0.0395367
9.97 0.0389167
9.98 0.0383657
9.99 0.0378993
10 0.0375104
10.01 0.037192
10.02 0.0369348
10.03 0.0367281
10.04 0.0365495
10.05 0.0363744
10.06 0.036179
10.07 0.0359345
10.08 0.0356061
10.09 0.0351745
10.1 0.0346163
10.11 0.033909
10.12 0.0330104
10.13 0.0319317
10.14 0.0306663
10.15 0.0292132
10.16 0.027554
10.17 0.0257205
10.18 0.0237355
10.19 0.0216216
10.2 0.0193993
10.21 0.0171084
10.22 0.0147897
10.23 0.0124791
10.24 0.0102168
10.25 0.00804919
10.26 0.00600291
10.27 0.00410709
10.28 0.00238889
10.29 0.000896264
10.3 -0.000386353
10.31 -0.00145445
10.32 -0.00231044
10.33 -0.00293898
10.34 -0.00338175
10.35 -0.00366898
10.36 -0.003831
10.37 -0.00389823
10.38 -0.00391967
10.39 -0.00394254
10.4 -0.00400922
10.41 -0.00416839
10.42 -0.00447332
10.43 -0.00494882
10.44 -0.00562487
10.45 -0.00652882
10.46 -0.00771105
10.47 -0.00914439
10.48 -0.0108271
10.49 -0.0127489
10.5 -0.0149174
10.51 -0.0172766
10.52 -0.0197848
10.53 -0.0223998
10.54 -0.025075
10.55 -0.0277476
10.56 -0.0303609
10.57 -0.0328612
10.58 -0.0351842
10.59 -0.0372616
10.6 -0.0390689
10.61 -0.0405698
10.62 -0.0417295
10.63 -0.0424796
10.64 -0.0428613
10.65 -0.0428762
10.66 -0.0425357
10.67 -0.0418192
10.68 -0.0408005
10.69 -0.0395286
10.7 -0.0380513
10.71 -0.0364133
10.72 -0.0346883
10.73 -0.0329461
10.74 -0.0312472
10.75 -0.0296602
10.76 -0.0282582
10.77 -0.0270782
10.78 -0.0261627
10.79 -0.0255515
10.8 -0.0253131
10.81 -0.0254158
10.82 -0.0258612
10.83 -0.0266406
10.84 -0.0277747
10.85 -0.0291926
10.86 -0.0308474
10.87 -0.0326919
10.88 -0.0346805
10.89 -0.0367397
10.9 -0.038801
10.91 -0.0408034
10.92 -0.0426771
10.93 -0.0443482
10.94 -0.0457806
10.95 -0.0469316
10.96 -0.0477598
10.97 -0.0481946
10.98 -0.0482693
10.99 -0.0479813
11 -0.0473381
11.01 -0.0463142
11.02 -0.0449823
11.03 -0.0433876
11.04 -0.0415754
11.05 -0.0395859
11.06 -0.0374915
11.07 -0.0353597
11.08 -0.0332491
11.09 -0.0312249
11.1 -0.029356
11.11 -0.0276807
11.12 -0.0262399
11.13 -0.0250729
11.14 -0.0242424
11.15 -0.0237221
11.16 -0.0235149
11.17 -0.0236141
11.18 -0.024041
11.19 -0.0247302
11.2 -0.025641
11.21 -0.0267317
11.22 -0.0279635
11.23 -0.0292704
11.24 -0.0305917
11.25 -0.031874
11.26 -0.0330563
11.27 -0.0340754
11.28 -0.0348983
11.29 -0.0354879
11.3 -0.0358077
11.31 -0.0357991
11.32 -0.0354884
11.33 -0.0348728
11.34 -0.033958
11.35 -0.0327204
11.36 -0.031222
11.37 -0.0294984
11.38 -0.0275861
11.39 -0.0255154
11.4 -0.0233453
11.41 -0.02113
11.42 -0.0189158
11.43 -0.0167533
11.44 -0.0146953
11.45 -0.0127735
11.46 -0.0110198
11.47 -0.00946522
11.48 -0.00815596
11.49 -0.00707489
11.5 -0.00622536
11.51 -0.00560382
11.52 -0.00522917
11.53 -0.00505401
11.54 -0.00505174
11.55 -0.00519513
11.56 -0.00546232
11.57 -0.00580931
11.58 -0.00619655
11.59 -0.00659111
11.6 -0.00695811
11.61 -0.00726216
11.62 -0.00748221
11.63 -0.00759869
11.64 -0.00759367
11.65 -0.00744283
11.66 -0.00716047
11.67 -0.0067497
11.68 -0.0062187
11.69 -0.0055672
11.7 -0.00482923
11.71 -0.00402766
11.72 -0.00318607
11.73 -0.00233074
11.74 -0.00149239
11.75 -0.000696382
11.76 3.40559e-05
11.77 0.000671054
11.78 0.00119104
11.79 0.00158974
11.8 0.00185851
11.81 0.00198962
11.82 0.00196985
11.83 0.00182356
11.84 0.00156121
11.85 0.00119698
11.86 0.000738829
11.87 0.000221146
11.88 -0.000332625
11.89 -0.00089928
11.9 -0.0014519
