[DEFAULT]

version = diffpy.pdfgetx-2.2.1

# input and output specifications
dataformat = twotheta
inputfile = Synthetic_CSH_CSH_pdf_ramp_900_05_normalized.chi
backgroundfiles = quartz_030degC_normalized.chi
outputtype = gr

# PDF calculation setup
mode = xray
wavelength = 0.2113
twothetazero = 0
composition = CaO SiO2
bgscales = 1.0
rpoly = 0.9
qmaxinst = 23.7031
qmin = 0.5
qmax = 20
rmin = 0
rmax = 60
rstep = 0.01

# End of config --------------------------------------------------------------

#### start data
#S 1
#L r(Å)  G(Å$^{-2}$)
0 0
0.01 -0.00126145
0.02 -0.00248313
0.03 -0.00363107
0.04 -0.00467291
0.05 -0.00555897
0.06 -0.00627002
0.07 -0.00679005
0.08 -0.00710197
0.09 -0.00717542
0.1 -0.00700407
0.11 -0.00660693
0.12 -0.00599144
0.13 -0.00516361
0.14 -0.00413331
0.15 -0.00295186
0.16 -0.00165199
0.17 -0.000271063
0.18 0.00114846
0.19 0.00254991
0.2 0.00388595
0.21 0.00510862
0.22 0.00614515
0.23 0.00695712
0.24 0.00751021
0.25 0.00776875
0.26 0.00767495
0.27 0.00720623
0.28 0.00637892
0.29 0.00519391
0.3 0.00364938
0.31 0.00175098
0.32 -0.000421857
0.33 -0.00281821
0.34 -0.00537617
0.35 -0.00802344
0.36 -0.0106523
0.37 -0.0131698
0.38 -0.0154775
0.39 -0.0174211
0.4 -0.0189075
0.41 -0.0198464
0.42 -0.0201398
0.43 -0.0196271
0.44 -0.018218
0.45 -0.0159049
0.46 -0.0126376
0.47 -0.00833876
0.48 -0.00292363
0.49 0.00347916
0.5 0.0108347
0.51 0.0190899
0.52 0.0282736
0.53 0.0381425
0.54 0.0485703
0.55 0.0594134
0.56 0.0705226
0.57 0.081674
0.58 0.0926757
0.59 0.103339
0.6 0.11341
0.61 0.122671
0.62 0.130985
0.63 0.138185
0.64 0.144053
0.65 0.148336
0.66 0.15108
0.67 0.1522
0.68 0.151632
0.69 0.149094
0.7 0.144855
0.71 0.138953
0.72 0.131452
0.73 0.122263
0.74 0.111664
0.75 0.0998454
0.76 0.0869647
0.77 0.0731333
0.78 0.0585824
0.79 0.0435636
0.8 0.0282664
0.81 0.0128823
0.82 -0.00237188
0.83 -0.017326
0.84 -0.0318297
0.85 -0.0457443
0.86 -0.0588395
0.87 -0.071124
0.88 -0.0825342
0.89 -0.0930287
0.9 -0.102468
0.91 -0.110949
0.92 -0.11853
0.93 -0.125254
0.94 -0.131117
0.95 -0.13622
0.96 -0.140702
0.97 -0.144651
0.98 -0.148142
0.99 -0.151259
1 -0.154134
1.01 -0.156848
1.02 -0.159471
1.03 -0.162069
1.04 -0.164702
1.05 -0.167406
1.06 -0.170204
1.07 -0.173127
1.08 -0.176166
1.09 -0.17931
1.1 -0.182544
1.11 -0.185853
1.12 -0.189207
1.13 -0.192578
1.14 -0.195942
1.15 -0.199275
1.16 -0.202557
1.17 -0.205781
1.18 -0.208944
1.19 -0.212048
1.2 -0.215096
1.21 -0.218113
1.22 -0.221119
1.23 -0.224135
1.24 -0.227191
1.25 -0.230305
1.26 -0.23349
1.27 -0.236753
1.28 -0.240095
1.29 -0.243493
1.3 -0.246907
1.31 -0.250284
1.32 -0.253544
1.33 -0.25657
1.34 -0.259261
1.35 -0.261489
1.36 -0.2631
1.37 -0.263805
1.38 -0.263526
1.39 -0.262089
1.4 -0.259315
1.41 -0.254807
1.42 -0.248537
1.43 -0.240401
1.44 -0.230273
1.45 -0.217852
1.46 -0.203117
1.47 -0.186189
1.48 -0.167085
1.49 -0.14576
1.5 -0.122241
1.51 -0.0969214
1.52 -0.0700127
1.53 -0.0417584
1.54 -0.0123762
1.55 0.0176009
1.56 0.0477931
1.57 0.0777952
1.58 0.107041
1.59 0.135098
1.6 0.161545
1.61 0.185952
1.62 0.207634
1.63 0.226206
1.64 0.241489
1.65 0.253181
1.66 0.260808
1.67 0.263943
1.68 0.26288
1.69 0.257568
1.7 0.247957
1.71 0.233615
1.72 0.215322
1.73 0.193309
1.74 0.167866
1.75 0.13897
1.76 0.10742
1.77 0.0737284
1.78 0.0383661
1.79 0.0017583
1.8 -0.0354636
1.81 -0.0727312
1.82 -0.109557
1.83 -0.145395
1.84 -0.179664
1.85 -0.21208
1.86 -0.242296
1.87 -0.269969
1.88 -0.294476
1.89 -0.316017
1.9 -0.334481
1.91 -0.349811
1.92 -0.361585
1.93 -0.370231
1.94 -0.375936
1.95 -0.378854
1.96 -0.378943
1.97 -0.376556
1.98 -0.372097
1.99 -0.365817
2 -0.3579
2.01 -0.348585
2.02 -0.338263
2.03 -0.327151
2.04 -0.315436
2.05 -0.303253
2.06 -0.290803
2.07 -0.278177
2.08 -0.265431
2.09 -0.252573
2.1 -0.239598
2.11 -0.22646
2.12 -0.21309
2.13 -0.199357
2.14 -0.185148
2.15 -0.170373
2.16 -0.154921
2.17 -0.138635
2.18 -0.121371
2.19 -0.103145
2.2 -0.0839152
2.21 -0.0636499
2.22 -0.0422595
2.23 -0.0199552
2.24 0.00315723
2.25 0.0269353
2.26 0.0512383
2.27 0.0757582
2.28 0.100233
2.29 0.124384
2.3 0.147819
2.31 0.170192
2.32 0.191225
2.33 0.210599
2.34 0.227866
2.35 0.242594
2.36 0.254726
2.37 0.264033
2.38 0.270256
2.39 0.272857
2.4 0.272175
2.41 0.268177
2.42 0.26088
2.43 0.249913
2.44 0.235827
2.45 0.21887
2.46 0.19928
2.47 0.177127
2.48 0.152896
2.49 0.127074
2.5 0.100041
2.51 0.0721649
2.52 0.0439083
2.53 0.0157399
2.54 -0.0119538
2.55 -0.0387768
2.56 -0.0641972
2.57 -0.0880441
2.58 -0.110057
2.59 -0.13002
2.6 -0.147426
2.61 -0.162431
2.62 -0.175021
2.63 -0.185195
2.64 -0.192763
2.65 -0.197959
2.66 -0.201071
2.67 -0.202288
2.68 -0.201747
2.69 -0.199705
2.7 -0.196597
2.71 -0.192711
2.72 -0.188339
2.73 -0.1838
2.74 -0.179428
2.75 -0.175484
2.76 -0.172206
2.77 -0.169955
2.78 -0.16881
2.79 -0.168882
2.8 -0.170257
2.81 -0.173122
2.82 -0.177401
2.83 -0.182966
2.84 -0.189723
2.85 -0.197598
2.86 -0.206412
2.87 -0.215864
2.88 -0.225724
2.89 -0.235743
2.9 -0.245605
2.91 -0.25503
2.92 -0.263754
2.93 -0.271517
2.94 -0.277866
2.95 -0.282712
2.96 -0.285877
2.97 -0.287198
2.98 -0.286321
2.99 -0.283249
3 -0.278042
3.01 -0.270695
3.02 -0.261103
3.03 -0.249307
3.04 -0.235621
3.05 -0.220197
3.06 -0.203181
3.07 -0.184683
3.08 -0.165137
3.09 -0.144797
3.1 -0.123925
3.11 -0.102789
3.12 -0.0817252
3.13 -0.0609936
3.14 -0.0408397
3.15 -0.0216022
3.16 -0.00347174
3.17 0.0134239
3.18 0.0289428
3.19 0.0428666
3.2 0.0550749
3.21 0.0656754
3.22 0.0746725
3.23 0.0820611
3.24 0.0877771
3.25 0.092135
3.26 0.0952725
3.27 0.0973504
3.28 0.098447
3.29 0.0989083
3.3 0.0989527
3.31 0.0987946
3.32 0.0986739
3.33 0.0988345
3.34 0.0994712
3.35 0.100768
3.36 0.102958
3.37 0.106231
3.38 0.110621
3.39 0.116213
3.4 0.123104
3.41 0.131448
3.42 0.141072
3.43 0.151934
3.44 0.163967
3.45 0.177224
3.46 0.191415
3.47 0.206385
3.48 0.221973
3.49 0.238031
3.5 0.254312
3.51 0.270604
3.52 0.28671
3.53 0.302395
3.54 0.317425
3.55 0.331662
3.56 0.344942
3.57 0.357076
3.58 0.367797
3.59 0.377144
3.6 0.385033
3.61 0.391401
3.62 0.395964
3.63 0.398931
3.64 0.400322
3.65 0.400162
3.66 0.398332
3.67 0.395004
3.68 0.390327
3.69 0.384388
3.7 0.377209
3.71 0.368898
3.72 0.359664
3.73 0.349613
3.74 0.338833
3.75 0.327387
3.76 0.315459
3.77 0.303136
3.78 0.290498
3.79 0.277591
3.8 0.264518
3.81 0.251329
3.82 0.238066
3.83 0.224757
3.84 0.211434
3.85 0.198112
3.86 0.184802
3.87 0.171512
3.88 0.158247
3.89 0.145007
3.9 0.131797
3.91 0.118626
3.92 0.105509
3.93 0.092459
3.94 0.0794985
3.95 0.0666564
3.96 0.0539998
3.97 0.0415555
3.98 0.0293754
3.99 0.0175186
4 0.00610337
4.01 -0.00481619
4.02 -0.0151831
4.03 -0.0249209
4.04 -0.0338923
4.05 -0.0420005
4.06 -0.049234
4.07 -0.0555256
4.08 -0.0607758
4.09 -0.0648327
4.1 -0.0677824
4.11 -0.0695965
4.12 -0.0702587
4.13 -0.0695859
4.14 -0.0677714
4.15 -0.0648477
4.16 -0.0608579
4.17 -0.0557481
4.18 -0.0496778
4.19 -0.0427753
4.2 -0.0351368
4.21 -0.0268285
4.22 -0.017986
4.23 -0.0087804
4.24 0.000663868
4.25 0.0102197
4.26 0.0197383
4.27 0.0290879
4.28 0.0381518
4.29 0.0468202
4.3 0.0548986
4.31 0.0623664
4.32 0.0691494
4.33 0.0751856
4.34 0.0803278
4.35 0.0846027
4.36 0.0880293
4.37 0.0906088
4.38 0.092293
4.39 0.0931188
4.4 0.0931997
4.41 0.0925937
4.42 0.0913478
4.43 0.0895106
4.44 0.0872407
4.45 0.0846288
4.46 0.0817686
4.47 0.0787455
4.48 0.0756884
4.49 0.0726876
4.5 0.0698285
4.51 0.067226
4.52 0.0649431
4.53 0.0630299
4.54 0.0615358
4.55 0.060539
4.56 0.060069
4.57 0.0601011
4.58 0.0606355
4.59 0.0616811
4.6 0.0632471
4.61 0.0652411
4.62 0.0676197
4.63 0.0703324
4.64 0.0733549
4.65 0.0765724
4.66 0.079917
4.67 0.0833188
4.68 0.0866963
4.69 0.0899694
4.7 0.0930711
4.71 0.0959362
4.72 0.0984739
4.73 0.100619
4.74 0.102346
4.75 0.103613
4.76 0.104359
4.77 0.10451
4.78 0.104103
4.79 0.103123
4.8 0.101558
4.81 0.0993105
4.82 0.0964749
4.83 0.093056
4.84 0.089062
4.85 0.0844359
4.86 0.0792423
4.87 0.0735166
4.88 0.0672747
4.89 0.0604922
4.9 0.0531927
4.91 0.0454302
4.92 0.0372208
4.93 0.0285621
4.94 0.0194432
4.95 0.00992996
4.96 3.94736e-05
4.97 -0.0102117
4.98 -0.0208514
4.99 -0.0318021
5 -0.0430384
5.01 -0.0545319
5.02 -0.0662745
5.03 -0.0782037
5.04 -0.0902706
5.05 -0.10243
5.06 -0.114631
5.07 -0.126809
5.08 -0.138904
5.09 -0.150854
5.1 -0.162582
5.11 -0.173994
5.12 -0.18505
5.13 -0.195683
5.14 -0.205826
5.15 -0.215328
5.16 -0.22421
5.17 -0.232421
5.18 -0.239914
5.19 -0.246549
5.2 -0.252364
5.21 -0.257361
5.22 -0.261529
5.23 -0.264789
5.24 -0.26716
5.25 -0.26872
5.26 -0.26949
5.27 -0.269467
5.28 -0.268648
5.29 -0.267163
5.3 -0.265059
5.31 -0.262383
5.32 -0.259125
5.33 -0.25542
5.34 -0.251324
5.35 -0.246886
5.36 -0.242122
5.37 -0.23711
5.38 -0.231895
5.39 -0.226511
5.4 -0.22097
5.41 -0.215297
5.42 -0.209513
5.43 -0.203622
5.44 -0.197619
5.45 -0.191488
5.46 -0.185231
5.47 -0.178833
5.48 -0.172276
5.49 -0.165516
5.5 -0.158559
5.51 -0.15139
5.52 -0.143996
5.53 -0.136336
5.54 -0.128429
5.55 -0.120283
5.56 -0.111906
5.57 -0.103292
5.58 -0.0944689
5.59 -0.08548
5.6 -0.0763572
5.61 -0.0671355
5.62 -0.0578624
5.63 -0.0485941
5.64 -0.0393798
5.65 -0.0302718
5.66 -0.021351
5.67 -0.0126496
5.68 -0.00421543
5.69 0.00390682
5.7 0.011625
5.71 0.0189351
5.72 0.0258185
5.73 0.032252
5.74 0.0381751
5.75 0.043587
5.76 0.0485174
5.77 0.0529696
5.78 0.0569283
5.79 0.0603845
5.8 0.0634068
5.81 0.0660166
5.82 0.0682325
5.83 0.0700337
5.84 0.0715011
5.85 0.0726585
5.86 0.073528
5.87 0.0740963
5.88 0.0744108
5.89 0.0744919
5.9 0.0743496
5.91 0.0739708
5.92 0.0733651
5.93 0.072547
5.94 0.0715146
5.95 0.0702527
5.96 0.0687449
5.97 0.0670104
5.98 0.0650469
5.99 0.0628503
6 0.0603937
6.01 0.0577175
6.02 0.0548327
6.03 0.0517552
6.04 0.0484861
6.05 0.0450747
6.06 0.0415578
6.07 0.0379725
6.08 0.0343619
6.09 0.0307804
6.1 0.0272774
6.11 0.0239022
6.12 0.0207171
6.13 0.0177908
6.14 0.0151492
6.15 0.012834
6.16 0.0108883
6.17 0.0093981
6.18 0.00833107
6.19 0.0077008
6.2 0.00751246
6.21 0.00782026
6.22 0.00855864
6.23 0.00969253
6.24 0.0111891
6.25 0.0130339
6.26 0.0151587
6.27 0.0174882
6.28 0.0199628
6.29 0.0225207
6.3 0.0250862
6.31 0.0275885
6.32 0.0299656
6.33 0.0321544
6.34 0.0340628
6.35 0.0356734
6.36 0.0369474
6.37 0.0378541
6.38 0.0383163
6.39 0.038366
6.4 0.0380115
6.41 0.037261
6.42 0.0360967
6.43 0.0345631
6.44 0.0327177
6.45 0.0306004
6.46 0.0282454
6.47 0.0257023
6.48 0.0230436
6.49 0.0203199
6.5 0.0175815
6.51 0.0148874
6.52 0.0122806
6.53 0.00979951
6.54 0.00747718
6.55 0.00536973
6.56 0.0034777
6.57 0.00180973
6.58 0.000372353
6.59 -0.000811197
6.6 -0.00175634
6.61 -0.00248776
6.62 -0.00301965
6.63 -0.00335904
6.64 -0.00352133
6.65 -0.00354341
6.66 -0.00344346
6.67 -0.00323615
6.68 -0.00292625
6.69 -0.00253727
6.7 -0.00207447
6.71 -0.00153865
6.72 -0.000913943
6.73 -0.000198742
6.74 0.000620062
6.75 0.00156114
6.76 0.00266389
6.77 0.00395228
6.78 0.00544498
6.79 0.00717019
6.8 0.0091736
6.81 0.0114975
6.82 0.014139
6.83 0.0171181
6.84 0.0204581
6.85 0.0242129
6.86 0.0283356
6.87 0.0328224
6.88 0.0376632
6.89 0.0428856
6.9 0.0484196
6.91 0.0542277
6.92 0.0602726
6.93 0.0665275
6.94 0.0729282
6.95 0.0794139
6.96 0.0859324
6.97 0.0924255
6.98 0.0988277
6.99 0.105091
7 0.111165
7.01 0.117
7.02 0.122513
7.03 0.127705
7.04 0.132542
7.05 0.137001
7.06 0.141
7.07 0.144576
7.08 0.147727
7.09 0.150449
7.1 0.152699
7.11 0.154503
7.12 0.155894
7.13 0.156881
7.14 0.157451
7.15 0.157607
7.16 0.157397
7.17 0.156834
7.18 0.155917
7.19 0.154621
7.2 0.152995
7.21 0.151045
7.22 0.148772
7.23 0.14613
7.24 0.143158
7.25 0.13986
7.26 0.136232
7.27 0.132235
7.28 0.127886
7.29 0.123203
7.3 0.118188
7.31 0.112826
7.32 0.107118
7.33 0.10111
7.34 0.09482
7.35 0.0882649
7.36 0.0814527
7.37 0.074451
7.38 0.067298
7.39 0.0600357
7.4 0.0527078
7.41 0.0453784
7.42 0.0381004
7.43 0.030927
7.44 0.0239357
7.45 0.0171812
7.46 0.0107074
7.47 0.00456528
7.48 -0.00116789
7.49 -0.00642806
7.5 -0.0112116
7.51 -0.0154834
7.52 -0.019197
7.53 -0.0222646
7.54 -0.0247407
7.55 -0.0266129
7.56 -0.0278737
7.57 -0.0284307
7.58 -0.0283716
7.59 -0.027713
7.6 -0.0264679
7.61 -0.0245939
7.62 -0.022148
7.63 -0.0191837
7.64 -0.0157279
7.65 -0.01178
7.66 -0.00736751
7.67 -0.00256493
7.68 0.00259363
7.69 0.00808112
7.7 0.0138836
7.71 0.0199228
7.72 0.0261602
7.73 0.0325562
7.74 0.039082
7.75 0.0456741
7.76 0.0522884
7.77 0.0588813
7.78 0.0653954
7.79 0.0717813
7.8 0.077996
7.81 0.0839928
7.82 0.0897023
7.83 0.0950624
7.84 0.100052
7.85 0.104626
7.86 0.108727
7.87 0.112257
7.88 0.11524
7.89 0.117643
7.9 0.119436
7.91 0.120495
7.92 0.120888
7.93 0.120607
7.94 0.119644
7.95 0.117919
7.96 0.115482
7.97 0.112374
7.98 0.108611
7.99 0.104169
8 0.099068
8.01 0.0933928
8.02 0.087176
8.03 0.0804377
8.04 0.0731767
8.05 0.065495
8.06 0.0574315
8.07 0.0490247
8.08 0.0402714
8.09 0.0312568
8.1 0.0220174
8.11 0.0125854
8.12 0.00297594
8.13 -0.0067682
8.14 -0.0166147
8.15 -0.0265405
8.16 -0.0365271
8.17 -0.0465513
8.18 -0.0565898
8.19 -0.0666245
8.2 -0.0766357
8.21 -0.0865976
8.22 -0.0964937
8.23 -0.106303
8.24 -0.116001
8.25 -0.125541
8.26 -0.13491
8.27 -0.144082
8.28 -0.153024
8.29 -0.161671
8.3 -0.170002
8.31 -0.177995
8.32 -0.185616
8.33 -0.192801
8.34 -0.199506
8.35 -0.205738
8.36 -0.211473
8.37 -0.216671
8.38 -0.221264
8.39 -0.225308
8.4 -0.228799
8.41 -0.231736
8.42 -0.234045
8.43 -0.235824
8.44 -0.237095
8.45 -0.237882
8.46 -0.238169
8.47 -0.238025
8.48 -0.23751
8.49 -0.236662
8.5 -0.235503
8.51 -0.234078
8.52 -0.232451
8.53 -0.230657
8.54 -0.228726
8.55 -0.226681
8.56 -0.224561
8.57 -0.222383
8.58 -0.220159
8.59 -0.217887
8.6 -0.215572
8.61 -0.213206
8.62 -0.210778
8.63 -0.208258
8.64 -0.205627
8.65 -0.202865
8.66 -0.199947
8.67 -0.196831
8.68 -0.193485
8.69 -0.189902
8.7 -0.186063
8.71 -0.18194
8.72 -0.177499
8.73 -0.172769
8.74 -0.167752
8.75 -0.162457
8.76 -0.156858
8.77 -0.151021
8.78 -0.144975
8.79 -0.13875
8.8 -0.132372
8.81 -0.125896
8.82 -0.11937
8.83 -0.112836
8.84 -0.106341
8.85 -0.0999321
8.86 -0.0936406
8.87 -0.0874978
8.88 -0.081537
8.89 -0.0757959
8.9 -0.0702638
8.91 -0.0649447
8.92 -0.0598355
8.93 -0.0549556
8.94 -0.050253
8.95 -0.0457033
8.96 -0.041277
8.97 -0.0369469
8.98 -0.0326629
8.99 -0.028383
9 -0.0240685
9.01 -0.0196726
9.02 -0.0151535
9.03 -0.0104872
9.04 -0.00564816
9.05 -0.000608087
9.06 0.00466318
9.07 0.0101459
9.08 0.0158363
9.09 0.0217235
9.1 0.0278129
9.11 0.0340464
9.12 0.0403906
9.13 0.0468069
9.14 0.0532507
9.15 0.0596663
9.16 0.0660051
9.17 0.0722195
9.18 0.0782448
9.19 0.0840296
9.2 0.0895486
9.21 0.0947675
9.22 0.0996426
9.23 0.104123
9.24 0.108233
9.25 0.111969
9.26 0.115329
9.27 0.118266
9.28 0.120856
9.29 0.123117
9.3 0.125077
9.31 0.126734
9.32 0.128148
9.33 0.129361
9.34 0.130406
9.35 0.131304
9.36 0.13209
9.37 0.132798
9.38 0.133446
9.39 0.134046
9.4 0.134606
9.41 0.135131
9.42 0.135616
9.43 0.136051
9.44 0.136407
9.45 0.136672
9.46 0.136822
9.47 0.13683
9.48 0.136644
9.49 0.136247
9.5 0.13562
9.51 0.134738
9.52 0.133555
9.53 0.132057
9.54 0.130256
9.55 0.128147
9.56 0.12572
9.57 0.122968
9.58 0.119943
9.59 0.116668
9.6 0.113174
9.61 0.109473
9.62 0.105638
9.63 0.101712
9.64 0.0977404
9.65 0.093774
9.66 0.0898649
9.67 0.0860557
9.68 0.0823864
9.69 0.0789116
9.7 0.0756653
9.71 0.0726581
9.72 0.0699083
9.73 0.0674409
9.74 0.0652792
9.75 0.0633898
9.76 0.0617647
9.77 0.0603921
9.78 0.0592844
9.79 0.0583817
9.8 0.0576593
9.81 0.0570914
9.82 0.0566652
9.83 0.0563397
9.84 0.0560886
9.85 0.0558924
9.86 0.055738
9.87 0.0556124
9.88 0.0555083
9.89 0.0554266
9.9 0.0553748
9.91 0.0553692
9.92 0.0554234
9.93 0.0555582
9.94 0.0557989
9.95 0.0561948
9.96 0.0567567
9.97 0.0575124
9.98 0.0584882
9.99 0.0597427
10 0.0612745
10.01 0.063091
10.02 0.0652018
10.03 0.0676371
10.04 0.0703857
10.05 0.0734148
10.06 0.0767053
10.07 0.0802415
10.08 0.0839959
10.09 0.0879034
10.1 0.0919186
10.11 0.0959925
10.12 0.100064
10.13 0.104073
10.14 0.107962
10.15 0.111676
10.16 0.115127
10.17 0.118279
10.18 0.121095
10.19 0.123534
10.2 0.12552
10.21 0.12703
10.22 0.128073
10.23 0.128635
10.24 0.128684
10.25 0.128193
10.26 0.127223
10.27 0.125788
10.28 0.123899
10.29 0.121526
10.3 0.11876
10.31 0.11563
10.32 0.112164
10.33 0.108358
10.34 0.104275
10.35 0.0999545
10.36 0.0954217
10.37 0.0906861
10.38 0.0857786
10.39 0.0807299
10.4 0.0755561
10.41 0.0702651
10.42 0.0648644
10.43 0.059374
10.44 0.0538007
10.45 0.0481495
10.46 0.0424172
10.47 0.03662
10.48 0.030764
10.49 0.0248562
10.5 0.0189005
10.51 0.0129137
10.52 0.00690926
10.53 0.000901974
10.54 -0.00508853
10.55 -0.0110405
10.56 -0.0169346
10.57 -0.0227496
10.58 -0.0284562
10.59 -0.0340222
10.6 -0.039437
10.61 -0.0446803
10.62 -0.0497302
10.63 -0.0545411
10.64 -0.0591286
10.65 -0.063483
10.66 -0.0675982
10.67 -0.071439
10.68 -0.0750348
10.69 -0.0783973
10.7 -0.081536
10.71 -0.0844445
10.72 -0.0871478
10.73 -0.0896769
10.74 -0.0920507
10.75 -0.094282
10.76 -0.0963881
10.77 -0.0984006
10.78 -0.100336
10.79 -0.102207
10.8 -0.104019
10.81 -0.105787
10.82 -0.107515
10.83 -0.1092
10.84 -0.11083
10.85 -0.112398
10.86 -0.113893
10.87 -0.115298
10.88 -0.116579
10.89 -0.117715
10.9 -0.118691
10.91 -0.119483
10.92 -0.120056
10.93 -0.120375
10.94 -0.120445
10.95 -0.12025
10.96 -0.119774
10.97 -0.118977
10.98 -0.117898
10.99 -0.116541
11 -0.114918
11.01 -0.113012
11.02 -0.110876
11.03 -0.108541
11.04 -0.106038
11.05 -0.10339
11.06 -0.100643
11.07 -0.0978428
11.08 -0.0950262
11.09 -0.0922334
11.1 -0.089508
11.11 -0.0868789
11.12 -0.0843747
11.13 -0.0820232
11.14 -0.0798671
11.15 -0.0778982
11.16 -0.0761246
11.17 -0.0745492
11.18 -0.0731966
11.19 -0.0720339
11.2 -0.0710446
11.21 -0.0702122
11.22 -0.0695289
11.23 -0.0689628
11.24 -0.0684825
11.25 -0.068064
11.26 -0.0676849
11.27 -0.0673195
11.28 -0.0669452
11.29 -0.0665454
11.3 -0.0661058
11.31 -0.0656103
11.32 -0.0650607
11.33 -0.0644569
11.34 -0.0638031
11.35 -0.0631025
11.36 -0.0623741
11.37 -0.061634
11.38 -0.0608995
11.39 -0.0601946
11.4 -0.0595415
11.41 -0.0589586
11.42 -0.0584649
11.43 -0.0580856
11.44 -0.0578425
11.45 -0.0577361
11.46 -0.0577742
11.47 -0.0579642
11.48 -0.0583223
11.49 -0.0588225
11.5 -0.0594552
11.51 -0.0602072
11.52 -0.0610735
11.53 -0.0620181
11.54 -0.0630164
11.55 -0.0640439
11.56 -0.0650729
11.57 -0.0660729
11.58 -0.0670194
11.59 -0.0678888
11.6 -0.0686523
11.61 -0.0692844
11.62 -0.0697804
11.63 -0.0701292
11.64 -0.0703197
11.65 -0.0703309
11.66 -0.0701857
11.67 -0.069889
11.68 -0.0694493
11.69 -0.0688607
11.7 -0.0681563
11.71 -0.0673538
11.72 -0.0664703
11.73 -0.0655182
11.74 -0.0645208
11.75 -0.0634972
11.76 -0.0624617
11.77 -0.0614274
11.78 -0.0604057
11.79 -0.0594028
11.8 -0.0584217
11.81 -0.0574634
11.82 -0.0565265
11.83 -0.0556017
11.84 -0.0546806
11.85 -0.0537525
11.86 -0.0528008
11.87 -0.0518131
11.88 -0.0507761
11.89 -0.0496764
11.9 -0.0484923
11.91 -0.0472149
11.92 -0.0458396
11.93 -0.0443599
11.94 -0.0427644
11.95 -0.0410493
11.96 -0.0392274
11.97 -0.0373041
11.98 -0.0352849
11.99 -0.0331739
12 -0.0309963
12.01 -0.0287668
12.02 -0.0265013
12.03 -0.0242156
12.04 -0.021931
12.05 -0.0196633
12.06 -0.0174273
12.07 -0.0152421
12.08 -0.0131176
