[DEFAULT]

version = diffpy.pdfgetx-2.2.1

# input and output specifications
dataformat = twotheta
inputfile = Synthetic_CSH_CSH_pdf_ramp_200_06_normalized.chi
backgroundfiles = quartz_030degC_normalized.chi
outputtype = gr

# PDF calculation setup
mode = xray
wavelength = 0.2113
twothetazero = 0
composition = CaO SiO2
bgscales = 1.0
rpoly = 0.9
qmaxinst = 23.7031
qmin = 0.5
qmax = 20
rmin = 0
rmax = 60
rstep = 0.01

# End of config --------------------------------------------------------------

#### start data
#S 1
#L r(Å)  G(Å$^{-2}$)
0 0
0.01 -0.00197752
0.02 -0.0038931
0.03 -0.00569376
0.04 -0.00732911
0.05 -0.00872169
0.06 -0.0098415
0.07 -0.0106635
0.08 -0.011161
0.09 -0.0112865
0.1 -0.0110297
0.11 -0.0104201
0.12 -0.00946876
0.13 -0.0081843
0.14 -0.00658092
0.15 -0.00473784
0.16 -0.00270475
0.17 -0.000538364
0.18 0.00169873
0.19 0.00391922
0.2 0.00605185
0.21 0.0080246
0.22 0.00972985
0.23 0.0111097
0.24 0.0121131
0.25 0.0126874
0.26 0.0127484
0.27 0.0122634
0.28 0.0112567
0.29 0.0097301
0.3 0.00768128
0.31 0.00511846
0.32 0.00215613
0.33 -0.0011336
0.34 -0.00466403
0.35 -0.00833771
0.36 -0.0120045
0.37 -0.0155396
0.38 -0.0188119
0.39 -0.0216218
0.4 -0.0238506
0.41 -0.0253863
0.42 -0.0261104
0.43 -0.0258315
0.44 -0.0244512
0.45 -0.0219761
0.46 -0.0183635
0.47 -0.0135441
0.48 -0.00744963
0.49 -0.000258264
0.5 0.00795874
0.51 0.0171073
0.52 0.027162
0.53 0.0378291
0.54 0.0489353
0.55 0.0602909
0.56 0.0716731
0.57 0.0828352
0.58 0.093564
0.59 0.10365
0.6 0.112803
0.61 0.12081
0.62 0.127573
0.63 0.132951
0.64 0.136755
0.65 0.138779
0.66 0.139154
0.67 0.137866
0.68 0.134923
0.69 0.130153
0.7 0.123896
0.71 0.116268
0.72 0.107406
0.73 0.0973506
0.74 0.0864019
0.75 0.0747766
0.76 0.062659
0.77 0.0502207
0.78 0.037674
0.79 0.0251977
0.8 0.012934
0.81 0.00102627
0.82 -0.0103829
0.83 -0.0212671
0.84 -0.0315841
0.85 -0.0413116
0.86 -0.0503761
0.87 -0.058901
0.88 -0.0669382
0.89 -0.0745532
0.9 -0.081788
0.91 -0.0887698
0.92 -0.0955913
0.93 -0.102329
0.94 -0.109055
0.95 -0.115831
0.96 -0.12269
0.97 -0.129645
0.98 -0.136689
0.99 -0.143785
1 -0.150865
1.01 -0.157851
1.02 -0.164644
1.03 -0.171071
1.04 -0.177044
1.05 -0.182437
1.06 -0.187128
1.07 -0.190881
1.08 -0.193663
1.09 -0.195425
1.1 -0.196113
1.11 -0.195607
1.12 -0.193946
1.13 -0.191264
1.14 -0.187651
1.15 -0.183203
1.16 -0.178075
1.17 -0.172551
1.18 -0.166855
1.19 -0.16123
1.2 -0.156015
1.21 -0.151444
1.22 -0.147764
1.23 -0.145204
1.24 -0.144166
1.25 -0.144701
1.26 -0.146883
1.27 -0.150775
1.28 -0.156537
1.29 -0.164052
1.3 -0.173067
1.31 -0.183382
1.32 -0.194774
1.33 -0.206898
1.34 -0.219264
1.35 -0.231449
1.36 -0.242983
1.37 -0.253162
1.38 -0.261614
1.39 -0.267869
1.4 -0.271477
1.41 -0.271573
1.42 -0.268078
1.43 -0.260803
1.44 -0.24955
1.45 -0.233823
1.46 -0.213725
1.47 -0.189644
1.48 -0.161793
1.49 -0.130322
1.5 -0.0955701
1.51 -0.0584238
1.52 -0.0194868
1.53 0.0205765
1.54 0.060972
1.55 0.100796
1.56 0.139268
1.57 0.175613
1.58 0.208591
1.59 0.237712
1.6 0.262422
1.61 0.282165
1.62 0.29593
1.63 0.303475
1.64 0.304958
1.65 0.300298
1.66 0.289215
1.67 0.271635
1.68 0.248529
1.69 0.220338
1.7 0.187547
1.71 0.150403
1.72 0.11027
1.73 0.0679262
1.74 0.0241837
1.75 -0.0200974
1.76 -0.0639255
1.77 -0.106512
1.78 -0.147129
1.79 -0.184807
1.8 -0.218963
1.81 -0.249328
1.82 -0.275563
1.83 -0.297188
1.84 -0.313884
1.85 -0.326156
1.86 -0.334159
1.87 -0.338095
1.88 -0.337929
1.89 -0.334684
1.9 -0.328879
1.91 -0.321078
1.92 -0.311759
1.93 -0.301761
1.94 -0.291691
1.95 -0.282089
1.96 -0.273582
1.97 -0.266622
1.98 -0.261456
1.99 -0.258306
2 -0.257423
2.01 -0.258906
2.02 -0.262419
2.03 -0.267747
2.04 -0.274602
2.05 -0.282655
2.06 -0.291223
2.07 -0.299773
2.08 -0.307737
2.09 -0.31428
2.1 -0.318876
2.11 -0.320991
2.12 -0.320108
2.13 -0.315379
2.14 -0.306494
2.15 -0.293397
2.16 -0.275911
2.17 -0.253705
2.18 -0.226664
2.19 -0.195427
2.2 -0.160288
2.21 -0.121584
2.22 -0.0795384
2.23 -0.0352243
2.24 0.0106979
2.25 0.0575194
2.26 0.104414
2.27 0.150505
2.28 0.195046
2.29 0.237319
2.3 0.276286
2.31 0.311357
2.32 0.3422
2.33 0.368389
2.34 0.389273
2.35 0.404403
2.36 0.414197
2.37 0.418675
2.38 0.417857
2.39 0.411437
2.4 0.400471
2.41 0.385375
2.42 0.36663
2.43 0.344407
2.44 0.31974
2.45 0.293275
2.46 0.265603
2.47 0.237295
2.48 0.209019
2.49 0.181297
2.5 0.15457
2.51 0.129319
2.52 0.105958
2.53 0.0845527
2.54 0.0652381
2.55 0.0481234
2.56 0.0334291
2.57 0.0207609
2.58 0.00996426
2.59 0.000837232
2.6 -0.0066947
2.61 -0.0131215
2.62 -0.0187549
2.63 -0.023886
2.64 -0.0288044
2.65 -0.0338276
2.66 -0.0391931
2.67 -0.0450929
2.68 -0.0517287
2.69 -0.0592407
2.7 -0.0675996
2.71 -0.0767957
2.72 -0.0867888
2.73 -0.0975295
2.74 -0.108761
2.75 -0.120299
2.76 -0.131934
2.77 -0.143386
2.78 -0.154404
2.79 -0.164756
2.8 -0.174216
2.81 -0.182441
2.82 -0.189276
2.83 -0.194643
2.84 -0.198433
2.85 -0.200472
2.86 -0.200689
2.87 -0.199271
2.88 -0.196288
2.89 -0.191815
2.9 -0.185882
2.91 -0.178861
2.92 -0.170956
2.93 -0.162384
2.94 -0.153343
2.95 -0.144149
2.96 -0.135031
2.97 -0.126196
2.98 -0.117904
2.99 -0.110319
3 -0.103541
3.01 -0.0976674
3.02 -0.0928267
3.03 -0.0890716
3.04 -0.0862937
3.05 -0.0844443
3.06 -0.0834655
3.07 -0.0833107
3.08 -0.0837391
3.09 -0.084605
3.1 -0.0857531
3.11 -0.0870183
3.12 -0.0882062
3.13 -0.089166
3.14 -0.08976
3.15 -0.0898018
3.16 -0.089203
3.17 -0.0879162
3.18 -0.0858907
3.19 -0.0830463
3.2 -0.0793652
3.21 -0.0749425
3.22 -0.069822
3.23 -0.0640473
3.24 -0.0576474
3.25 -0.0507876
3.26 -0.0435552
3.27 -0.0360373
3.28 -0.028298
3.29 -0.0204476
3.3 -0.0125481
3.31 -0.00464505
3.32 0.00322736
3.33 0.0110603
3.34 0.0188666
3.35 0.0266744
3.36 0.034535
3.37 0.0425217
3.38 0.0507011
3.39 0.0591516
3.4 0.0679683
3.41 0.0772887
3.42 0.0871385
3.43 0.0975821
3.44 0.108671
3.45 0.120545
3.46 0.13312
3.47 0.146376
3.48 0.160276
3.49 0.174816
3.5 0.189854
3.51 0.205249
3.52 0.220865
3.53 0.236542
3.54 0.252074
3.55 0.267275
3.56 0.281959
3.57 0.295908
3.58 0.308818
3.59 0.320611
3.6 0.331126
3.61 0.340219
3.62 0.347513
3.63 0.353127
3.64 0.357007
3.65 0.359114
3.66 0.359239
3.67 0.357529
3.68 0.354122
3.69 0.349098
3.7 0.34246
3.71 0.334343
3.72 0.325022
3.73 0.314655
3.74 0.303385
3.75 0.29135
3.76 0.278826
3.77 0.265979
3.78 0.252969
3.79 0.239962
3.8 0.227108
3.81 0.214521
3.82 0.202296
3.83 0.19057
3.84 0.179377
3.85 0.168733
3.86 0.158656
3.87 0.149193
3.88 0.140335
3.89 0.132009
3.9 0.124183
3.91 0.116832
3.92 0.109946
3.93 0.103426
3.94 0.0972322
3.95 0.0913291
3.96 0.0857234
3.97 0.080352
3.98 0.0752015
3.99 0.0702683
4 0.0655842
4.01 0.0611502
4.02 0.056979
4.03 0.0530991
4.04 0.0495714
4.05 0.0464426
4.06 0.0437227
4.07 0.0414488
4.08 0.0396744
4.09 0.0384789
4.1 0.0378254
4.11 0.0377301
4.12 0.0382018
4.13 0.0393289
4.14 0.0410128
4.15 0.0432323
4.16 0.0459601
4.17 0.049212
4.18 0.0529033
4.19 0.0569657
4.2 0.0613472
4.21 0.0660089
4.22 0.0708845
4.23 0.0758977
4.24 0.0809949
4.25 0.0861243
4.26 0.0912297
4.27 0.096267
4.28 0.1012
4.29 0.105996
4.3 0.1106
4.31 0.115014
4.32 0.11922
4.33 0.123206
4.34 0.126932
4.35 0.130404
4.36 0.133623
4.37 0.136579
4.38 0.139236
4.39 0.141577
4.4 0.143606
4.41 0.145302
4.42 0.146625
4.43 0.147508
4.44 0.147964
4.45 0.147957
4.46 0.147452
4.47 0.146321
4.48 0.144608
4.49 0.142282
4.5 0.139312
4.51 0.135592
4.52 0.131157
4.53 0.126024
4.54 0.120195
4.55 0.113625
4.56 0.106343
4.57 0.0984365
4.58 0.0899483
4.59 0.0809127
4.6 0.0713683
4.61 0.061448
4.62 0.05123
4.63 0.0407963
4.64 0.0302257
4.65 0.0196347
4.66 0.00910747
4.67 -0.0012749
4.68 -0.0114012
4.69 -0.0212124
4.7 -0.0306604
4.71 -0.0396983
4.72 -0.048251
4.73 -0.0562941
4.74 -0.0638545
4.75 -0.0709357
4.76 -0.0775339
4.77 -0.0836486
4.78 -0.0893717
4.79 -0.094749
4.8 -0.0998316
4.81 -0.104649
4.82 -0.109304
4.83 -0.113857
4.84 -0.118365
4.85 -0.12289
4.86 -0.127487
4.87 -0.132195
4.88 -0.137046
4.89 -0.14208
4.9 -0.147311
4.91 -0.152725
4.92 -0.158316
4.93 -0.164073
4.94 -0.169972
4.95 -0.175963
4.96 -0.182003
4.97 -0.188048
4.98 -0.194035
4.99 -0.199915
5 -0.20564
5.01 -0.211161
5.02 -0.216399
5.03 -0.221331
5.04 -0.225932
5.05 -0.230176
5.06 -0.234009
5.07 -0.237419
5.08 -0.240429
5.09 -0.24304
5.1 -0.24524
5.11 -0.247016
5.12 -0.248427
5.13 -0.249489
5.14 -0.250219
5.15 -0.250588
5.16 -0.250663
5.17 -0.250456
5.18 -0.249974
5.19 -0.249188
5.2 -0.248121
5.21 -0.246773
5.22 -0.245131
5.23 -0.243148
5.24 -0.240801
5.25 -0.238084
5.26 -0.234969
5.27 -0.231401
5.28 -0.227313
5.29 -0.222726
5.3 -0.217611
5.31 -0.211942
5.32 -0.205619
5.33 -0.198718
5.34 -0.19124
5.35 -0.183194
5.36 -0.174532
5.37 -0.165341
5.38 -0.155679
5.39 -0.145597
5.4 -0.135128
5.41 -0.124359
5.42 -0.113393
5.43 -0.102309
5.44 -0.0911974
5.45 -0.0801645
5.46 -0.0693001
5.47 -0.0586909
5.48 -0.0484247
5.49 -0.038652
5.5 -0.0293893
5.51 -0.0206998
5.52 -0.0126382
5.53 -0.00534164
5.54 0.00121905
5.55 0.00704367
5.56 0.012122
5.57 0.0163878
5.58 0.0198707
5.59 0.0226458
5.6 0.0247446
5.61 0.0261762
5.62 0.0269607
5.63 0.0272191
5.64 0.0270076
5.65 0.0263808
5.66 0.0253597
5.67 0.0240632
5.68 0.0225498
5.69 0.0208758
5.7 0.0190871
5.71 0.0172506
5.72 0.0154129
5.73 0.0136129
5.74 0.0118941
5.75 0.0102878
5.76 0.00881053
5.77 0.00747898
5.78 0.00631366
5.79 0.00533164
5.8 0.00451722
5.81 0.00386819
5.82 0.00338084
5.83 0.00306507
5.84 0.00288539
5.85 0.0028275
5.86 0.00287527
5.87 0.00302018
5.88 0.00323119
5.89 0.003486
5.9 0.00376414
5.91 0.00404306
5.92 0.00429809
5.93 0.00450909
5.94 0.00465652
5.95 0.0047164
5.96 0.00466335
5.97 0.00449169
5.98 0.00418875
5.99 0.00374231
6 0.0031249
6.01 0.00235492
6.02 0.00143356
6.03 0.000366114
6.04 -0.000854109
6.05 -0.00219478
6.06 -0.00363172
6.07 -0.00513944
6.08 -0.00668814
6.09 -0.00823445
6.1 -0.00973582
6.11 -0.0111484
6.12 -0.0124148
6.13 -0.013467
6.14 -0.0142692
6.15 -0.0147698
6.16 -0.0149116
6.17 -0.0145855
6.18 -0.0137987
6.19 -0.0125094
6.2 -0.0106805
6.21 -0.00819999
6.22 -0.00510499
6.23 -0.00139454
6.24 0.00293845
6.25 0.00795182
6.26 0.0136123
6.27 0.0198597
6.28 0.0266653
6.29 0.0340199
6.3 0.0418928
6.31 0.0501795
6.32 0.058823
6.33 0.0677664
6.34 0.0769634
6.35 0.0863076
6.36 0.0957318
6.37 0.105169
6.38 0.114539
6.39 0.123777
6.4 0.132825
6.41 0.141631
6.42 0.150112
6.43 0.158226
6.44 0.165957
6.45 0.173271
6.46 0.180115
6.47 0.186444
6.48 0.192286
6.49 0.197629
6.5 0.202454
6.51 0.20669
6.52 0.210403
6.53 0.213591
6.54 0.216249
6.55 0.218298
6.56 0.219798
6.57 0.220754
6.58 0.221161
6.59 0.220955
6.6 0.22015
6.61 0.218771
6.62 0.216812
6.63 0.21423
6.64 0.210997
6.65 0.207169
6.66 0.202749
6.67 0.19773
6.68 0.192056
6.69 0.185824
6.7 0.17906
6.71 0.17179
6.72 0.163991
6.73 0.155767
6.74 0.147178
6.75 0.138278
6.76 0.12911
6.77 0.119761
6.78 0.110313
6.79 0.100839
6.8 0.0914173
6.81 0.082139
6.82 0.0730677
6.83 0.0642707
6.84 0.0558199
6.85 0.0478288
6.86 0.0402987
6.87 0.0332731
6.88 0.0267878
6.89 0.0209551
6.9 0.0157255
6.91 0.0110985
6.92 0.00707661
6.93 0.00371532
6.94 0.000973317
6.95 -0.00120261
6.96 -0.00283564
6.97 -0.00392217
6.98 -0.00448085
6.99 -0.00459267
7 -0.00428936
7.01 -0.00359404
7.02 -0.00250129
7.03 -0.00108998
7.04 0.000614975
7.05 0.00259135
7.06 0.00485343
7.07 0.00735092
7.08 0.0100662
7.09 0.0129877
7.1 0.0161243
7.11 0.0194555
7.12 0.0229604
7.13 0.0266278
7.14 0.0304533
7.15 0.0344218
7.16 0.0384989
7.17 0.0426605
7.18 0.0468782
7.19 0.051115
7.2 0.0553248
7.21 0.0594638
7.22 0.0634844
7.23 0.0673032
7.24 0.0708813
7.25 0.0741658
7.26 0.0771014
7.27 0.0795854
7.28 0.0815777
7.29 0.0830542
7.3 0.0839732
7.31 0.0842585
7.32 0.0838609
7.33 0.0828207
7.34 0.0811309
7.35 0.0787777
7.36 0.075709
7.37 0.0720373
7.38 0.0677976
7.39 0.0630341
7.4 0.0577383
7.41 0.0520412
7.42 0.0460154
7.43 0.0397312
7.44 0.0332498
7.45 0.0266674
7.46 0.0200655
7.47 0.0135139
7.48 0.00709024
7.49 0.000870057
7.5 -0.00510739
7.51 -0.0107984
7.52 -0.0161577
7.53 -0.0211188
7.54 -0.0257104
7.55 -0.0299261
7.56 -0.0337676
7.57 -0.0371925
7.58 -0.0402701
7.59 -0.0430284
7.6 -0.0454952
7.61 -0.0476769
7.62 -0.0496272
7.63 -0.0513925
7.64 -0.0530054
7.65 -0.0544902
7.66 -0.0558772
7.67 -0.0571995
7.68 -0.0584752
7.69 -0.0597172
7.7 -0.0609318
7.71 -0.0621252
7.72 -0.0632947
7.73 -0.064434
7.74 -0.0655252
7.75 -0.0665595
7.76 -0.0675225
7.77 -0.0683992
7.78 -0.0691618
7.79 -0.0698009
7.8 -0.0703109
7.81 -0.0706843
7.82 -0.0709069
7.83 -0.0709767
7.84 -0.070912
7.85 -0.0707229
7.86 -0.0704206
7.87 -0.0700179
7.88 -0.069551
7.89 -0.069045
7.9 -0.0685266
7.91 -0.0680301
7.92 -0.0675846
7.93 -0.0672165
7.94 -0.0669505
7.95 -0.0668245
7.96 -0.0668513
7.97 -0.067038
7.98 -0.0673929
7.99 -0.0679325
8 -0.0686573
8.01 -0.0695453
8.02 -0.0705853
8.03 -0.0717664
8.04 -0.0730789
8.05 -0.0744854
8.06 -0.0759645
8.07 -0.0774946
8.08 -0.0790569
8.09 -0.0806261
8.1 -0.0821866
8.11 -0.0837264
8.12 -0.0852335
8.13 -0.0867066
8.14 -0.0881495
8.15 -0.0895689
8.16 -0.0909761
8.17 -0.0923895
8.18 -0.0938287
8.19 -0.0953144
8.2 -0.0968717
8.21 -0.0985343
8.22 -0.100313
8.23 -0.102224
8.24 -0.104282
8.25 -0.10652
8.26 -0.108916
8.27 -0.111463
8.28 -0.114147
8.29 -0.116958
8.3 -0.119853
8.31 -0.122789
8.32 -0.125719
8.33 -0.128585
8.34 -0.131315
8.35 -0.133856
8.36 -0.136143
8.37 -0.138098
8.38 -0.139614
8.39 -0.140674
8.4 -0.141223
8.41 -0.141213
8.42 -0.140505
8.43 -0.139156
8.44 -0.137151
8.45 -0.134481
8.46 -0.131074
8.47 -0.126997
8.48 -0.122308
8.49 -0.117046
8.5 -0.111225
8.51 -0.10491
8.52 -0.0982116
8.53 -0.091201
8.54 -0.0839477
8.55 -0.0765287
8.56 -0.0690481
8.57 -0.0615809
8.58 -0.0541987
8.59 -0.0470021
8.6 -0.0400338
8.61 -0.0333444
8.62 -0.0269772
8.63 -0.0210121
8.64 -0.0154509
8.65 -0.0102929
8.66 -0.00554514
8.67 -0.00123893
8.68 0.00263333
8.69 0.00611888
8.7 0.00923517
8.71 0.0119897
8.72 0.0143807
8.73 0.0164712
8.74 0.0182814
8.75 0.019829
8.76 0.0210913
8.77 0.0221184
8.78 0.0229162
8.79 0.023486
8.8 0.0237966
8.81 0.0238579
8.82 0.0236687
8.83 0.0232167
8.84 0.022465
8.85 0.0213974
8.86 0.0200247
8.87 0.0183382
8.88 0.0163203
8.89 0.0139467
8.9 0.0112639
8.91 0.00828696
8.92 0.00503819
8.93 0.00151479
8.94 -0.00220099
8.95 -0.0060622
8.96 -0.0100156
8.97 -0.0139984
8.98 -0.0179341
8.99 -0.0217549
9 -0.0253927
9.01 -0.0287543
9.02 -0.0317625
9.03 -0.0343788
9.04 -0.0365499
9.05 -0.0382082
9.06 -0.0392713
9.07 -0.0397756
9.08 -0.0397092
9.09 -0.0390707
9.1 -0.0377874
9.11 -0.0359766
9.12 -0.0336758
9.13 -0.030933
9.14 -0.0277658
9.15 -0.0242825
9.16 -0.0205691
9.17 -0.0167009
9.18 -0.0127553
9.19 -0.00882476
9.2 -0.0049876
9.21 -0.00131273
9.22 0.00212477
9.23 0.00524055
9.24 0.00801969
9.25 0.0104292
9.26 0.0124455
9.27 0.0139947
9.28 0.0151421
9.29 0.0159007
9.3 0.0162928
9.31 0.0163124
9.32 0.016034
9.33 0.0155149
9.34 0.0148039
9.35 0.0139444
9.36 0.012999
9.37 0.0120266
9.38 0.0110733
9.39 0.010185
9.4 0.00941015
9.41 0.00876786
9.42 0.00827839
9.43 0.00795562
9.44 0.00783099
9.45 0.00787503
9.46 0.00807849
9.47 0.00842702
9.48 0.00891548
9.49 0.00950761
9.5 0.0101764
9.51 0.0108994
9.52 0.0116572
9.53 0.012429
9.54 0.0132007
9.55 0.0139657
9.56 0.0147236
9.57 0.0154824
9.58 0.0162581
9.59 0.0170723
9.6 0.017953
9.61 0.0189538
9.62 0.0201018
9.63 0.0214381
9.64 0.0230054
9.65 0.0248857
9.66 0.0270996
9.67 0.0296731
9.68 0.0326364
9.69 0.0360503
9.7 0.0399249
9.71 0.0442323
9.72 0.0489649
9.73 0.054122
9.74 0.0596917
9.75 0.0655854
9.76 0.0717499
9.77 0.078124
9.78 0.0846454
9.79 0.0912068
9.8 0.0977259
9.81 0.104118
9.82 0.11026
9.83 0.116078
9.84 0.1215
9.85 0.126454
9.86 0.130823
9.87 0.134553
9.88 0.137641
9.89 0.140058
9.9 0.141752
9.91 0.142676
9.92 0.142918
9.93 0.142503
9.94 0.141457
9.95 0.139751
9.96 0.137532
9.97 0.13486
9.98 0.1318
9.99 0.128389
10 0.124736
10.01 0.120918
10.02 0.116999
10.03 0.113039
10.04 0.109101
10.05 0.10523
10.06 0.101462
10.07 0.097831
10.08 0.0943636
10.09 0.091051
10.1 0.0878903
10.11 0.0848724
10.12 0.0819936
10.13 0.0792087
10.14 0.076489
10.15 0.0738034
10.16 0.0711153
10.17 0.0683876
10.18 0.0655901
10.19 0.0626956
10.2 0.0596677
10.21 0.0564885
10.22 0.0531553
10.23 0.0496628
10.24 0.0460039
10.25 0.0421792
10.26 0.0382196
10.27 0.034144
10.28 0.0299742
10.29 0.0257315
10.3 0.0214574
10.31 0.0171809
10.32 0.0129307
10.33 0.00874494
10.34 0.00464566
10.35 0.00065191
10.36 -0.00321982
10.37 -0.00694435
10.38 -0.0105179
10.39 -0.0139491
10.4 -0.0172423
10.41 -0.0203999
10.42 -0.0234315
10.43 -0.0263671
10.44 -0.0292255
10.45 -0.0320262
10.46 -0.0347876
10.47 -0.0375359
10.48 -0.0402879
10.49 -0.0430572
10.5 -0.0458585
10.51 -0.0486941
10.52 -0.0515625
10.53 -0.0544578
10.54 -0.057369
10.55 -0.0602757
10.56 -0.063155
10.57 -0.0659814
10.58 -0.0687197
10.59 -0.0713274
10.6 -0.0737819
10.61 -0.0760511
10.62 -0.078101
10.63 -0.0798681
10.64 -0.0813615
10.65 -0.0825627
10.66 -0.0834586
10.67 -0.083999
10.68 -0.0842195
10.69 -0.0841351
10.7 -0.0837596
10.71 -0.0830893
10.72 -0.0821639
10.73 -0.0810321
10.74 -0.0797285
10.75 -0.0782854
10.76 -0.0767447
10.77 -0.0751579
10.78 -0.0735624
10.79 -0.0719942
10.8 -0.070496
10.81 -0.0690878
10.82 -0.067789
10.83 -0.066613
10.84 -0.0655845
10.85 -0.0646874
10.86 -0.0639107
10.87 -0.06324
10.88 -0.0626618
10.89 -0.0621437
10.9 -0.0616517
10.91 -0.061155
10.92 -0.0606174
10.93 -0.0599986
10.94 -0.0592736
10.95 -0.0584162
10.96 -0.0574009
10.97 -0.0561876
10.98 -0.0547899
10.99 -0.0532052
11 -0.0514379
11.01 -0.0494778
11.02 -0.0473674
11.03 -0.0451366
11.04 -0.0428174
11.05 -0.0404454
11.06 -0.0380707
11.07 -0.0357391
11.08 -0.0334943
11.09 -0.03139
11.1 -0.0294816
11.11 -0.0277916
11.12 -0.0263519
11.13 -0.0251943
11.14 -0.0243755
11.15 -0.0238653
11.16 -0.0236651
11.17 -0.0237685
11.18 -0.0241986
11.19 -0.0248939
11.2 -0.0258178
11.21 -0.0269338
11.22 -0.0282107
11.23 -0.0295886
11.24 -0.0310111
11.25 -0.03243
11.26 -0.0337913
11.27 -0.0350381
11.28 -0.0361358
11.29 -0.0370486
11.3 -0.0377414
11.31 -0.03816
11.32 -0.0383214
11.33 -0.038219
11.34 -0.0378536
11.35 -0.0371992
11.36 -0.0363057
11.37 -0.0352006
11.38 -0.0339113
11.39 -0.0324579
11.4 -0.0308883
11.41 -0.0292476
11.42 -0.0275723
11.43 -0.0259006
11.44 -0.024273
11.45 -0.0227179
11.46 -0.02126
11.47 -0.0199226
11.48 -0.0187368
11.49 -0.0176931
11.5 -0.016793
11.51 -0.0160328
11.52 -0.0154207
11.53 -0.0149241
11.54 -0.014523
11.55 -0.0141969
11.56 -0.0139272
11.57 -0.013685
11.58 -0.013446
11.59 -0.0131904
11.6 -0.0128983
11.61 -0.0125528
11.62 -0.0121496
11.63 -0.0116858
11.64 -0.0111621
11.65 -0.010582
11.66 -0.00996701
11.67 -0.0093355
11.68 -0.00870973
11.69 -0.00812394
11.7 -0.00760624
11.71 -0.00718603
11.72 -0.00689343
11.73 -0.00677738
11.74 -0.00686151
11.75 -0.00716036
11.76 -0.00769331
11.77 -0.00849198
11.78 -0.00957341
11.79 -0.0109151
11.8 -0.0125118
11.81 -0.0143584
11.82 -0.0164576
11.83 -0.0187522
11.84 -0.0212121
11.85 -0.0238028
11.86 -0.0264941
11.87 -0.0292274
11.88 -0.0319589
11.89 -0.0346463
11.9 -0.0372338
11.91 -0.03968
11.92 -0.0419537
11.93 -0.0440225
11.94 -0.0458411
11.95 -0.0473767
11.96 -0.0486355
