[DEFAULT]

version = diffpy.pdfgetx-2.2.1

# input and output specifications
dataformat = twotheta
inputfile = Synthetic_CSH_CSH_pdf_ramp_500_05_normalized.chi
backgroundfiles = quartz_030degC_normalized.chi
outputtype = gr

# PDF calculation setup
mode = xray
wavelength = 0.2113
twothetazero = 0
composition = CaO SiO2
bgscales = 1.0
rpoly = 0.9
qmaxinst = 23.7031
qmin = 0.5
qmax = 20
rmin = 0
rmax = 60
rstep = 0.01

# End of config --------------------------------------------------------------

#### start data
#S 1
#L r(Å)  G(Å$^{-2}$)
0 0
0.01 -0.00206604
0.02 -0.00406108
0.03 -0.00592473
0.04 -0.00760013
0.05 -0.00900084
0.06 -0.0100955
0.07 -0.0108593
0.08 -0.0112665
0.09 -0.011271
0.1 -0.0108691
0.11 -0.0100999
0.12 -0.00898318
0.13 -0.00753812
0.14 -0.00579219
0.15 -0.00383406
0.16 -0.001723
0.17 0.000475827
0.18 0.00268411
0.19 0.00481825
0.2 0.00680563
0.21 0.00857562
0.22 0.0100192
0.23 0.0110917
0.24 0.0117547
0.25 0.0119685
0.26 0.0116646
0.27 0.0108299
0.28 0.00950607
0.29 0.00771173
0.3 0.00546425
0.31 0.00279468
0.32 -0.00017907
0.33 -0.00337636
0.34 -0.00670503
0.35 -0.0100498
0.36 -0.0132822
0.37 -0.0162857
0.38 -0.0189418
0.39 -0.0210609
0.4 -0.0225535
0.41 -0.0233329
0.42 -0.0233053
0.43 -0.0223095
0.44 -0.0202771
0.45 -0.0172359
0.46 -0.0131646
0.47 -0.00801844
0.48 -0.00175497
0.49 0.00545481
0.5 0.0135374
0.51 0.0224013
0.52 0.0320116
0.53 0.0421144
0.54 0.052558
0.55 0.0631794
0.56 0.0737852
0.57 0.0841707
0.58 0.094159
0.59 0.103576
0.6 0.112176
0.61 0.119782
0.62 0.126314
0.63 0.131649
0.64 0.135624
0.65 0.138053
0.66 0.139038
0.67 0.138555
0.68 0.136592
0.69 0.132966
0.7 0.127955
0.71 0.12163
0.72 0.114083
0.73 0.105292
0.74 0.0955006
0.75 0.0848761
0.76 0.0735543
0.77 0.0616373
0.78 0.049296
0.79 0.0366999
0.8 0.0239723
0.81 0.0112308
0.82 -0.00140126
0.83 -0.013841
0.84 -0.0260189
0.85 -0.037877
0.86 -0.049318
0.87 -0.060369
0.88 -0.0710183
0.89 -0.0812644
0.9 -0.0910645
0.91 -0.100472
0.92 -0.109516
0.93 -0.118214
0.94 -0.126554
0.95 -0.134555
0.96 -0.142244
0.97 -0.149619
0.98 -0.156654
0.99 -0.163303
1 -0.169573
1.01 -0.175428
1.02 -0.180822
1.03 -0.185628
1.04 -0.189869
1.05 -0.193498
1.06 -0.196471
1.07 -0.198657
1.08 -0.200096
1.09 -0.2008
1.1 -0.20077
1.11 -0.199969
1.12 -0.198461
1.13 -0.196359
1.14 -0.193747
1.15 -0.190714
1.16 -0.187385
1.17 -0.183942
1.18 -0.180531
1.19 -0.177312
1.2 -0.174518
1.21 -0.172269
1.22 -0.170709
1.23 -0.169973
1.24 -0.170307
1.25 -0.171713
1.26 -0.174214
1.27 -0.177827
1.28 -0.18263
1.29 -0.188519
1.3 -0.19531
1.31 -0.202853
1.32 -0.210974
1.33 -0.21942
1.34 -0.227867
1.35 -0.236023
1.36 -0.243562
1.37 -0.249978
1.38 -0.25504
1.39 -0.258424
1.4 -0.259818
1.41 -0.258595
1.42 -0.254709
1.43 -0.248021
1.44 -0.238375
1.45 -0.225384
1.46 -0.209092
1.47 -0.189755
1.48 -0.167484
1.49 -0.14233
1.5 -0.114465
1.51 -0.0845096
1.52 -0.0528537
1.53 -0.0199274
1.54 0.0138022
1.55 0.0476404
1.56 0.0810383
1.57 0.113437
1.58 0.143995
1.59 0.172263
1.6 0.197774
1.61 0.220056
1.62 0.238304
1.63 0.252204
1.64 0.261728
1.65 0.266675
1.66 0.266661
1.67 0.261418
1.68 0.251512
1.69 0.237093
1.7 0.21833
1.71 0.195066
1.72 0.168299
1.73 0.138469
1.74 0.106061
1.75 0.0713889
1.76 0.0353053
1.77 -0.00158702
1.78 -0.0387369
1.79 -0.0755295
1.8 -0.111375
1.81 -0.145838
1.82 -0.178504
1.83 -0.208871
1.84 -0.236478
1.85 -0.26134
1.86 -0.283307
1.87 -0.302242
1.88 -0.317751
1.89 -0.330321
1.9 -0.340065
1.91 -0.34714
1.92 -0.351438
1.93 -0.353509
1.94 -0.353666
1.95 -0.352177
1.96 -0.349203
1.97 -0.345099
1.98 -0.340185
1.99 -0.334674
2 -0.32873
2.01 -0.322507
2.02 -0.316132
2.03 -0.309652
2.04 -0.30307
2.05 -0.296318
2.06 -0.289323
2.07 -0.281963
2.08 -0.27409
2.09 -0.265412
2.1 -0.255798
2.11 -0.245072
2.12 -0.233046
2.13 -0.219384
2.14 -0.203965
2.15 -0.186762
2.16 -0.167694
2.17 -0.146608
2.18 -0.12344
2.19 -0.0984501
2.2 -0.0717579
2.21 -0.0435055
2.22 -0.0137946
2.23 0.0168904
2.24 0.0482348
2.25 0.0798904
2.26 0.111417
2.27 0.14237
2.28 0.172344
2.29 0.200932
2.3 0.227512
2.31 0.251712
2.32 0.273295
2.33 0.291948
2.34 0.30719
2.35 0.318634
2.36 0.326451
2.37 0.330544
2.38 0.330794
2.39 0.326797
2.4 0.319173
2.41 0.308076
2.42 0.293712
2.43 0.275947
2.44 0.255497
2.45 0.232759
2.46 0.208101
2.47 0.181795
2.48 0.154382
2.49 0.12635
2.5 0.0980981
2.51 0.0700466
2.52 0.0426484
2.53 0.0162118
2.54 -0.00896181
2.55 -0.0325651
2.56 -0.0541377
2.57 -0.0737259
2.58 -0.0911998
2.59 -0.106471
2.6 -0.119172
2.61 -0.12959
2.62 -0.137808
2.63 -0.143907
2.64 -0.147804
2.65 -0.149761
2.66 -0.150058
2.67 -0.14888
2.68 -0.146356
2.69 -0.142701
2.7 -0.138243
2.71 -0.133191
2.72 -0.127747
2.73 -0.122117
2.74 -0.11653
2.75 -0.111151
2.76 -0.106133
2.77 -0.101698
2.78 -0.0979049
2.79 -0.0948347
2.8 -0.0925547
2.81 -0.0912034
2.82 -0.0907661
2.83 -0.0911977
2.84 -0.092481
2.85 -0.0946314
2.86 -0.0976073
2.87 -0.101262
2.88 -0.105511
2.89 -0.110269
2.9 -0.115456
2.91 -0.120891
2.92 -0.126454
2.93 -0.132019
2.94 -0.13742
2.95 -0.142532
2.96 -0.147231
2.97 -0.151395
2.98 -0.154828
2.99 -0.157442
3 -0.159178
3.01 -0.159955
3.02 -0.15963
3.03 -0.158114
3.04 -0.155473
3.05 -0.151689
3.06 -0.146736
3.07 -0.140521
3.08 -0.133239
3.09 -0.124952
3.1 -0.115736
3.11 -0.105575
3.12 -0.0947062
3.13 -0.0832596
3.14 -0.0713648
3.15 -0.0591393
3.16 -0.046764
3.17 -0.0343928
3.18 -0.0221612
3.19 -0.0102259
3.2 0.00126258
3.21 0.0122281
3.22 0.0225822
3.23 0.0322322
3.24 0.0410452
3.25 0.0490877
3.26 0.0563554
3.27 0.0628652
3.28 0.0685548
3.29 0.0735932
3.3 0.0780683
3.31 0.0820759
3.32 0.0856982
3.33 0.0890962
3.34 0.0924124
3.35 0.0957741
3.36 0.0993275
3.37 0.10322
3.38 0.107541
3.39 0.112383
3.4 0.117844
3.41 0.124051
3.42 0.130956
3.43 0.138563
3.44 0.146857
3.45 0.155883
3.46 0.165473
3.47 0.175528
3.48 0.185935
3.49 0.196573
3.5 0.207259
3.51 0.217826
3.52 0.228113
3.53 0.23791
3.54 0.247015
3.55 0.255321
3.56 0.262685
3.57 0.268945
3.58 0.273867
3.59 0.277512
3.6 0.279825
3.61 0.280777
3.62 0.280155
3.63 0.27819
3.64 0.274943
3.65 0.270492
3.66 0.264824
3.67 0.258147
3.68 0.250651
3.69 0.242479
3.7 0.233758
3.71 0.224669
3.72 0.215407
3.73 0.206119
3.74 0.19695
3.75 0.188065
3.76 0.179547
3.77 0.171482
3.78 0.163931
3.79 0.157028
3.8 0.150709
3.81 0.144962
3.82 0.139761
3.83 0.135112
3.84 0.130908
3.85 0.127048
3.86 0.123446
3.87 0.120015
3.88 0.116642
3.89 0.113222
3.9 0.10967
3.91 0.105897
3.92 0.101804
3.93 0.0973732
3.94 0.0925747
3.95 0.0873972
3.96 0.081794
3.97 0.0758557
3.98 0.0696353
3.99 0.0632012
4 0.056634
4.01 0.0500591
4.02 0.043593
4.03 0.037354
4.04 0.0315011
4.05 0.026185
4.06 0.0214923
4.07 0.0175338
4.08 0.0144439
4.09 0.0124029
4.1 0.0113705
4.11 0.0113942
4.12 0.0125021
4.13 0.0148708
4.14 0.0183114
4.15 0.0227789
4.16 0.0282118
4.17 0.0346227
4.18 0.041829
4.19 0.0496778
4.2 0.058042
4.21 0.0668038
4.22 0.0757936
4.23 0.0848387
4.24 0.0937972
4.25 0.102517
4.26 0.110817
4.27 0.11861
4.28 0.125792
4.29 0.132273
4.3 0.137843
4.31 0.142564
4.32 0.1464
4.33 0.149329
4.34 0.151242
4.35 0.152223
4.36 0.152341
4.37 0.151636
4.38 0.150104
4.39 0.147815
4.4 0.1449
4.41 0.141429
4.42 0.13746
4.43 0.133044
4.44 0.128307
4.45 0.123315
4.46 0.11813
4.47 0.11279
4.48 0.107372
4.49 0.101913
4.5 0.0964446
4.51 0.0909957
4.52 0.085584
4.53 0.0802182
4.54 0.074903
4.55 0.0696424
4.56 0.0644319
4.57 0.0592614
4.58 0.0541234
4.59 0.049011
4.6 0.0439169
4.61 0.0388327
4.62 0.0337541
4.63 0.0286792
4.64 0.0236087
4.65 0.018545
4.66 0.0134927
4.67 0.00845795
4.68 0.00345219
4.69 -0.00151753
4.7 -0.00644443
4.71 -0.0113215
4.72 -0.0161382
4.73 -0.0208908
4.74 -0.0255833
4.75 -0.030218
4.76 -0.0347986
4.77 -0.0393328
4.78 -0.0438394
4.79 -0.048334
4.8 -0.0528352
4.81 -0.0573705
4.82 -0.0619601
4.83 -0.0666263
4.84 -0.071391
4.85 -0.076292
4.86 -0.0813397
4.87 -0.0865442
4.88 -0.091916
4.89 -0.0974758
4.9 -0.103222
4.91 -0.109135
4.92 -0.115202
4.93 -0.121408
4.94 -0.127733
4.95 -0.134128
4.96 -0.140556
4.97 -0.146976
4.98 -0.153328
4.99 -0.159564
5 -0.165636
5.01 -0.171491
5.02 -0.177041
5.03 -0.182255
5.04 -0.187096
5.05 -0.191525
5.06 -0.195463
5.07 -0.198879
5.08 -0.201784
5.09 -0.204162
5.1 -0.205978
5.11 -0.207192
5.12 -0.207871
5.13 -0.208027
5.14 -0.207673
5.15 -0.206766
5.16 -0.205408
5.17 -0.203633
5.18 -0.201474
5.19 -0.198927
5.2 -0.196066
5.21 -0.19294
5.22 -0.189584
5.23 -0.186018
5.24 -0.182283
5.25 -0.17842
5.26 -0.174455
5.27 -0.170408
5.28 -0.166298
5.29 -0.162147
5.3 -0.157969
5.31 -0.153772
5.32 -0.149564
5.33 -0.145351
5.34 -0.141139
5.35 -0.136931
5.36 -0.13273
5.37 -0.128539
5.38 -0.124363
5.39 -0.120205
5.4 -0.116076
5.41 -0.111982
5.42 -0.107932
5.43 -0.103935
5.44 -0.100007
5.45 -0.0961657
5.46 -0.0924176
5.47 -0.0887751
5.48 -0.0852516
5.49 -0.0818786
5.5 -0.0786476
5.51 -0.0755663
5.52 -0.0726403
5.53 -0.0698932
5.54 -0.0673087
5.55 -0.0648782
5.56 -0.0625945
5.57 -0.0604588
5.58 -0.0584519
5.59 -0.0565479
5.6 -0.0547278
5.61 -0.0529728
5.62 -0.051259
5.63 -0.049557
5.64 -0.0478438
5.65 -0.0460966
5.66 -0.0442838
5.67 -0.0423931
5.68 -0.040409
5.69 -0.0383192
5.7 -0.0360994
5.71 -0.033757
5.72 -0.0312964
5.73 -0.0287227
5.74 -0.0260376
5.75 -0.0232607
5.76 -0.0204179
5.77 -0.0175316
5.78 -0.0146278
5.79 -0.01174
5.8 -0.00889929
5.81 -0.00613623
5.82 -0.00348305
5.83 -0.000992893
5.84 0.00132373
5.85 0.00344154
5.86 0.00533829
5.87 0.00696143
5.88 0.00832065
5.89 0.00941406
5.9 0.0102379
5.91 0.0107691
5.92 0.0110232
5.93 0.0110309
5.94 0.0108097
5.95 0.0103717
5.96 0.00973827
5.97 0.00896109
5.98 0.00807276
5.99 0.00710738
6 0.00610163
6.01 0.00510203
6.02 0.00414501
6.03 0.00326613
6.04 0.00251899
6.05 0.0019274
6.06 0.00151692
6.07 0.00131303
6.08 0.00136138
6.09 0.00167641
6.1 0.00225633
6.11 0.00311071
6.12 0.00426096
6.13 0.00572306
6.14 0.00746498
6.15 0.00948114
6.16 0.0117671
6.17 0.0143427
6.18 0.0171562
6.19 0.0201925
6.2 0.0234353
6.21 0.0268905
6.22 0.0305168
6.23 0.0342918
6.24 0.038198
6.25 0.0422274
6.26 0.0463569
6.27 0.0505637
6.28 0.0548332
6.29 0.0591534
6.3 0.0635105
6.31 0.0678878
6.32 0.0722738
6.33 0.0766571
6.34 0.081024
6.35 0.0853645
6.36 0.0896684
6.37 0.0939251
6.38 0.0981141
6.39 0.102229
6.4 0.10626
6.41 0.110195
6.42 0.114009
6.43 0.117689
6.44 0.12123
6.45 0.124619
6.46 0.12783
6.47 0.13084
6.48 0.133655
6.49 0.136261
6.5 0.138645
6.51 0.140766
6.52 0.14265
6.53 0.144289
6.54 0.145681
6.55 0.146789
6.56 0.147644
6.57 0.148254
6.58 0.148625
6.59 0.148743
6.6 0.14863
6.61 0.148311
6.62 0.147801
6.63 0.147106
6.64 0.146238
6.65 0.145232
6.66 0.144106
6.67 0.142873
6.68 0.141543
6.69 0.140145
6.7 0.138691
6.71 0.137194
6.72 0.135659
6.73 0.134099
6.74 0.132518
6.75 0.130918
6.76 0.129297
6.77 0.127652
6.78 0.125978
6.79 0.124268
6.8 0.122511
6.81 0.120691
6.82 0.118804
6.83 0.116838
6.84 0.114781
6.85 0.11261
6.86 0.110331
6.87 0.107939
6.88 0.105428
6.89 0.102784
6.9 0.100022
6.91 0.0971527
6.92 0.0941843
6.93 0.0911227
6.94 0.0879907
6.95 0.0848127
6.96 0.0816103
6.97 0.0784089
6.98 0.0752396
6.99 0.0721281
7 0.0691008
7.01 0.0661863
7.02 0.0634283
7.03 0.0608323
7.04 0.0584172
7.05 0.0561985
7.06 0.0542186
7.07 0.0524581
7.08 0.0509147
7.09 0.0495842
7.1 0.0484775
7.11 0.0475675
7.12 0.0468227
7.13 0.0462187
7.14 0.0457324
7.15 0.0453282
7.16 0.0449613
7.17 0.0445957
7.18 0.0441926
7.19 0.0437014
7.2 0.0430931
7.21 0.0423351
7.22 0.0413977
7.23 0.040222
7.24 0.0388117
7.25 0.0371552
7.26 0.0352435
7.27 0.0330461
7.28 0.0305806
7.29 0.0278714
7.3 0.0249343
7.31 0.0217786
7.32 0.0184306
7.33 0.01494
7.34 0.0113406
7.35 0.00766742
7.36 0.00395994
7.37 0.000263892
7.38 -0.0033846
7.39 -0.00695125
7.4 -0.0103836
7.41 -0.0136661
7.42 -0.0167777
7.43 -0.0197007
7.44 -0.0224
7.45 -0.0248789
7.46 -0.0271481
7.47 -0.0292123
7.48 -0.0310688
7.49 -0.0327305
7.5 -0.0342341
7.51 -0.0356009
7.52 -0.0368522
7.53 -0.0380077
7.54 -0.0391062
7.55 -0.0401717
7.56 -0.0412265
7.57 -0.042294
7.58 -0.0433911
7.59 -0.044529
7.6 -0.0457153
7.61 -0.0469584
7.62 -0.0482525
7.63 -0.0495874
7.64 -0.0509518
7.65 -0.0523299
7.66 -0.0536994
7.67 -0.0550377
7.68 -0.056322
7.69 -0.0575259
7.7 -0.0586122
7.71 -0.0595703
7.72 -0.0603812
7.73 -0.0610288
7.74 -0.061473
7.75 -0.0617303
7.76 -0.0618009
7.77 -0.0616879
7.78 -0.0613818
7.79 -0.0609098
7.8 -0.0603
7.81 -0.059576
7.82 -0.0587609
7.83 -0.0578897
7.84 -0.0570018
7.85 -0.0561299
7.86 -0.0553088
7.87 -0.0545824
7.88 -0.0539713
7.89 -0.0534996
7.9 -0.0531874
7.91 -0.0530777
7.92 -0.0531552
7.93 -0.05342
7.94 -0.0538682
7.95 -0.0545073
7.96 -0.0553068
7.97 -0.0562361
7.98 -0.0572681
7.99 -0.0583751
8 -0.0595175
8.01 -0.0606543
8.02 -0.0617503
8.03 -0.0627673
8.04 -0.0636571
8.05 -0.0644023
8.06 -0.0649788
8.07 -0.0653674
8.08 -0.0655229
8.09 -0.065468
8.1 -0.0652056
8.11 -0.0647435
8.12 -0.0640771
8.13 -0.0632434
8.14 -0.062278
8.15 -0.0612122
8.16 -0.0600786
8.17 -0.0589217
8.18 -0.0577845
8.19 -0.0567049
8.2 -0.0557235
8.21 -0.0548907
8.22 -0.0542213
8.23 -0.0537383
8.24 -0.0534585
8.25 -0.053426
8.26 -0.0536112
8.27 -0.0540068
8.28 -0.0545998
8.29 -0.0553878
8.3 -0.056327
8.31 -0.0573763
8.32 -0.0584982
8.33 -0.0596513
8.34 -0.0607837
8.35 -0.0618501
8.36 -0.0628078
8.37 -0.0636096
8.38 -0.064196
8.39 -0.0645557
8.4 -0.0646636
8.41 -0.0645005
8.42 -0.0640098
8.43 -0.063231
8.44 -0.0621705
8.45 -0.0608411
8.46 -0.059236
8.47 -0.0574044
8.48 -0.05539
8.49 -0.0532297
8.5 -0.0509588
8.51 -0.0486275
8.52 -0.0462865
8.53 -0.0439772
8.54 -0.0417429
8.55 -0.0396343
8.56 -0.0376715
8.57 -0.0358788
8.58 -0.0342744
8.59 -0.0329027
8.6 -0.0317367
8.61 -0.030772
8.62 -0.0299984
8.63 -0.0294181
8.64 -0.0289923
8.65 -0.0286869
8.66 -0.0284725
8.67 -0.0283193
8.68 -0.0281887
8.69 -0.028045
8.7 -0.0278587
8.71 -0.0276001
8.72 -0.0272356
8.73 -0.0267587
8.74 -0.0261589
8.75 -0.0254316
8.76 -0.0245595
8.77 -0.0235724
8.78 -0.0224853
8.79 -0.0213183
8.8 -0.0200926
8.81 -0.0188452
8.82 -0.0176089
8.83 -0.0164154
8.84 -0.0153044
8.85 -0.0143116
8.86 -0.0134566
8.87 -0.0127616
8.88 -0.0122515
8.89 -0.0119539
8.9 -0.0118502
8.91 -0.0119366
8.92 -0.012203
8.93 -0.0126545
8.94 -0.0132375
8.95 -0.0139211
8.96 -0.0146701
8.97 -0.0154432
8.98 -0.0161899
8.99 -0.0168666
9 -0.0174308
9.01 -0.0178264
9.02 -0.0180095
9.03 -0.0179612
9.04 -0.017656
9.05 -0.0170628
9.06 -0.0161467
9.07 -0.0149396
9.08 -0.0134483
9.09 -0.0116866
9.1 -0.00964248
9.11 -0.00738919
9.12 -0.0049638
9.13 -0.00240819
9.14 0.000236444
9.15 0.0029074
9.16 0.0055531
9.17 0.00812588
9.18 0.010567
9.19 0.0128283
9.2 0.014885
9.21 0.0167091
9.22 0.0182681
9.23 0.0195284
9.24 0.0205182
9.25 0.0212438
9.26 0.0217189
9.27 0.0219353
9.28 0.0219625
9.29 0.0218373
9.3 0.0216009
9.31 0.0212955
9.32 0.0209803
9.33 0.0207038
9.34 0.020511
9.35 0.0204575
9.36 0.0205863
9.37 0.0209171
9.38 0.0214733
9.39 0.0222816
9.4 0.0233677
9.41 0.0247
9.42 0.0262674
9.43 0.0280518
9.44 0.0300507
9.45 0.032197
9.46 0.0344517
9.47 0.036772
9.48 0.0391096
9.49 0.0414097
9.5 0.0436272
9.51 0.0457196
9.52 0.0476315
9.53 0.0493257
9.54 0.0507898
9.55 0.0520059
9.56 0.0529517
9.57 0.0536085
9.58 0.0540146
9.59 0.0541866
9.6 0.0541471
9.61 0.0539058
9.62 0.0535315
9.63 0.0530659
9.64 0.0525534
9.65 0.0520453
9.66 0.051594
9.67 0.0512425
9.68 0.0510304
9.69 0.0510109
9.7 0.0512151
9.71 0.0516499
9.72 0.0523276
9.73 0.053264
9.74 0.0544684
9.75 0.0558978
9.76 0.057529
9.77 0.0593331
9.78 0.0612859
9.79 0.0633192
9.8 0.0653857
9.81 0.0674358
9.82 0.0694033
9.83 0.0712373
9.84 0.0728926
9.85 0.074325
9.86 0.0754687
9.87 0.0762894
9.88 0.0767819
9.89 0.0769292
9.9 0.0767045
9.91 0.0760859
9.92 0.0751224
9.93 0.0738308
9.94 0.072232
9.95 0.0703227
9.96 0.068184
9.97 0.0658558
9.98 0.0633804
9.99 0.0607936
10 0.0581554
10.01 0.0555104
10.02 0.0528971
10.03 0.0503596
10.04 0.0479316
10.05 0.0456312
10.06 0.0434753
10.07 0.0414832
10.08 0.0396686
10.09 0.0380106
10.1 0.0365001
10.11 0.0351241
10.12 0.033876
10.13 0.0327132
10.14 0.03161
10.15 0.0305394
10.16 0.0294706
10.17 0.0283725
10.18 0.0272203
10.19 0.0259916
10.2 0.0246568
10.21 0.0232009
10.22 0.021621
10.23 0.019912
10.24 0.0180668
10.25 0.0160839
10.26 0.0139866
10.27 0.0117883
10.28 0.00950433
10.29 0.00714799
10.3 0.00475217
10.31 0.00233871
10.32 -7.04705e-05
10.33 -0.00244792
10.34 -0.00477392
10.35 -0.0070319
10.36 -0.00920708
10.37 -0.0112778
10.38 -0.0132369
10.39 -0.0150863
10.4 -0.016825
10.41 -0.0184489
10.42 -0.0199585
10.43 -0.0213727
10.44 -0.0227009
10.45 -0.0239524
10.46 -0.0251316
10.47 -0.0262598
10.48 -0.0273472
10.49 -0.0284027
10.5 -0.0294308
10.51 -0.0304395
10.52 -0.0314316
10.53 -0.0324066
10.54 -0.0333593
10.55 -0.0342835
10.56 -0.0351726
10.57 -0.036017
10.58 -0.0368019
10.59 -0.0375101
10.6 -0.038136
10.61 -0.0386684
10.62 -0.0390956
10.63 -0.0393938
10.64 -0.0395732
10.65 -0.0396313
10.66 -0.0395686
10.67 -0.0393741
10.68 -0.0390699
10.69 -0.0386703
10.7 -0.03819
10.71 -0.037642
10.72 -0.0370521
10.73 -0.0364459
10.74 -0.0358461
10.75 -0.0352787
10.76 -0.0347724
10.77 -0.0343443
10.78 -0.0340128
10.79 -0.0337958
10.8 -0.0337227
10.81 -0.0337838
10.82 -0.0339822
10.83 -0.034316
10.84 -0.0347957
10.85 -0.0353934
10.86 -0.0360903
10.87 -0.036867
10.88 -0.037704
10.89 -0.0385696
10.9 -0.0394337
10.91 -0.040269
10.92 -0.0410435
10.93 -0.0417233
10.94 -0.0422917
10.95 -0.0427288
10.96 -0.0430152
10.97 -0.043118
10.98 -0.0430527
10.99 -0.0428185
11 -0.0424195
11.01 -0.0418449
11.02 -0.0411298
11.03 -0.0402967
11.04 -0.0393686
11.05 -0.0383671
11.06 -0.0373278
11.07 -0.0362838
11.08 -0.0352639
11.09 -0.0343011
11.1 -0.0334293
11.11 -0.0326649
11.12 -0.0320268
11.13 -0.0315323
11.14 -0.03121
11.15 -0.0310425
11.16 -0.0310274
11.17 -0.0311571
11.18 -0.0314351
11.19 -0.0318249
11.2 -0.0323015
11.21 -0.032839
11.22 -0.0334098
11.23 -0.0339774
11.24 -0.0345101
11.25 -0.0349784
11.26 -0.0353473
11.27 -0.0355828
11.28 -0.0356737
11.29 -0.0356034
11.3 -0.0353559
11.31 -0.0349031
11.32 -0.0342693
11.33 -0.03346
11.34 -0.0324854
11.35 -0.0313423
11.36 -0.0300722
11.37 -0.0287019
11.38 -0.0272581
11.39 -0.025768
11.4 -0.0242683
11.41 -0.0227905
11.42 -0.0213627
11.43 -0.0200171
11.44 -0.018784
11.45 -0.0176738
11.46 -0.0167005
11.47 -0.0158769
11.48 -0.0152248
11.49 -0.0147216
11.5 -0.0143608
11.51 -0.0141312
11.52 -0.0140318
11.53 -0.014026
11.54 -0.0140903
11.55 -0.0142009
11.56 -0.0143332
11.57 -0.0144579
11.58 -0.0145509
11.59 -0.0145915
11.6 -0.014556
11.61 -0.0144247
11.62 -0.0141953
11.63 -0.0138627
11.64 -0.0134236
11.65 -0.0128724
11.66 -0.0122327
11.67 -0.0115184
11.68 -0.0107465
11.69 -0.00993503
11.7 -0.00911454
11.71 -0.00830958
11.72 -0.00754456
11.73 -0.0068526
11.74 -0.00625644
11.75 -0.00577179
11.76 -0.00541497
11.77 -0.00520847
11.78 -0.00516565
11.79 -0.00527527
11.8 -0.00553482
11.81 -0.00594046
11.82 -0.00649158
11.83 -0.00715191
11.84 -0.00790034
11.85 -0.00871279
11.86 -0.00956433
11.87 -0.0104183
11.88 -0.0112459
11.89 -0.0120192
11.9 -0.0127004
11.91 -0.0132663
11.92 -0.0137014
11.93 -0.0139896
11.94 -0.014108
11.95 -0.0140448
