[DEFAULT]

version = diffpy.pdfgetx-2.2.1

# input and output specifications
dataformat = twotheta
inputfile = Synthetic_CSH_CSH_pdf_ramp_600_04_normalized.chi
backgroundfiles = quartz_030degC_normalized.chi
outputtype = gr

# PDF calculation setup
mode = xray
wavelength = 0.2113
twothetazero = 0
composition = CaO SiO2
bgscales = 1.0
rpoly = 0.9
qmaxinst = 23.7031
qmin = 0.5
qmax = 20
rmin = 0
rmax = 60
rstep = 0.01

# End of config --------------------------------------------------------------

#### start data
#S 1
#L r(Å)  G(Å$^{-2}$)
0 0
0.01 -0.00229896
0.02 -0.00451379
0.03 -0.00657316
0.04 -0.0084103
0.05 -0.00992437
0.06 -0.0110803
0.07 -0.0118513
0.08 -0.0122103
0.09 -0.0121083
0.1 -0.0115466
0.11 -0.0105751
0.12 -0.00922258
0.13 -0.00751801
0.14 -0.00550203
0.15 -0.0032785
0.16 -0.000919531
0.17 0.00149719
0.18 0.00387364
0.19 0.00612199
0.2 0.00816218
0.21 0.00991847
0.22 0.0112711
0.23 0.0121825
0.24 0.0126212
0.25 0.012555
0.26 0.0119226
0.27 0.0107269
0.28 0.00902778
0.29 0.00686035
0.3 0.00426083
0.31 0.00128345
0.32 -0.00194016
0.33 -0.00531427
0.34 -0.00873339
0.35 -0.0120557
0.36 -0.0151607
0.37 -0.0179292
0.38 -0.0202444
0.39 -0.0219108
0.4 -0.0228597
0.41 -0.0230229
0.42 -0.0223247
0.43 -0.0206247
0.44 -0.0178839
0.45 -0.0141585
0.46 -0.00945378
0.47 -0.00375667
0.48 0.00293749
0.49 0.0104442
0.5 0.0186696
0.51 0.0275046
0.52 0.0368729
0.53 0.0465421
0.54 0.0563603
0.55 0.0661694
0.56 0.0757671
0.57 0.0849845
0.58 0.0936743
0.59 0.10169
0.6 0.108815
0.61 0.114915
0.62 0.119951
0.63 0.123841
0.64 0.126465
0.65 0.127689
0.66 0.127637
0.67 0.126316
0.68 0.123742
0.69 0.119789
0.7 0.114713
0.71 0.108592
0.72 0.101517
0.73 0.0934897
0.74 0.0847129
0.75 0.0753232
0.76 0.0654294
0.77 0.0551122
0.78 0.0444967
0.79 0.0337019
0.8 0.02281
0.81 0.0118947
0.82 0.00102852
0.83 -0.00974203
0.84 -0.0203824
0.85 -0.0308673
0.86 -0.0411562
0.87 -0.0512695
0.88 -0.0612085
0.89 -0.0709787
0.9 -0.0805675
0.91 -0.0899983
0.92 -0.0992801
0.93 -0.108412
0.94 -0.117374
0.95 -0.126148
0.96 -0.134722
0.97 -0.143063
0.98 -0.151113
0.99 -0.158791
1 -0.166071
1.01 -0.172889
1.02 -0.179174
1.03 -0.184765
1.04 -0.189681
1.05 -0.193864
1.06 -0.197265
1.07 -0.199735
1.08 -0.201333
1.09 -0.202079
1.1 -0.201989
1.11 -0.20103
1.12 -0.199289
1.13 -0.196901
1.14 -0.193969
1.15 -0.190598
1.16 -0.186931
1.17 -0.183165
1.18 -0.179458
1.19 -0.175979
1.2 -0.172971
1.21 -0.170551
1.22 -0.168863
1.23 -0.168035
1.24 -0.168311
1.25 -0.169679
1.26 -0.17215
1.27 -0.175731
1.28 -0.180484
1.29 -0.186294
1.3 -0.192969
1.31 -0.200349
1.32 -0.208255
1.33 -0.216427
1.34 -0.224549
1.35 -0.232331
1.36 -0.239456
1.37 -0.245425
1.38 -0.250029
1.39 -0.252956
1.4 -0.253912
1.41 -0.252295
1.42 -0.248075
1.43 -0.241128
1.44 -0.231313
1.45 -0.218264
1.46 -0.202034
1.47 -0.182874
1.48 -0.160896
1.49 -0.136151
1.5 -0.108803
1.51 -0.079448
1.52 -0.0484541
1.53 -0.0162287
1.54 0.0167913
1.55 0.0499453
1.56 0.0827156
1.57 0.114574
1.58 0.14473
1.59 0.172753
1.6 0.198197
1.61 0.22061
1.62 0.239224
1.63 0.253729
1.64 0.264082
1.65 0.270077
1.66 0.271329
1.67 0.267551
1.68 0.259261
1.69 0.246576
1.7 0.229623
1.71 0.208201
1.72 0.183251
1.73 0.155164
1.74 0.124379
1.75 0.0911351
1.76 0.0562545
1.77 0.0203078
1.78 -0.0161845
1.79 -0.0526629
1.8 -0.0885448
1.81 -0.123378
1.82 -0.156744
1.83 -0.188143
1.84 -0.2171
1.85 -0.243562
1.86 -0.26734
1.87 -0.28825
1.88 -0.305851
1.89 -0.320553
1.9 -0.332409
1.91 -0.341521
1.92 -0.347699
1.93 -0.351452
1.94 -0.353051
1.95 -0.352728
1.96 -0.350584
1.97 -0.346965
1.98 -0.342205
1.99 -0.336523
2 -0.330085
2.01 -0.323063
2.02 -0.315658
2.03 -0.307965
2.04 -0.300039
2.05 -0.291879
2.06 -0.283491
2.07 -0.274823
2.08 -0.265792
2.09 -0.256211
2.1 -0.245989
2.11 -0.234997
2.12 -0.223091
2.13 -0.210012
2.14 -0.195645
2.15 -0.179946
2.16 -0.162829
2.17 -0.144144
2.18 -0.123807
2.19 -0.101992
2.2 -0.078763
2.21 -0.0542015
2.22 -0.0283452
2.23 -0.00157273
2.24 0.02588
2.25 0.0537442
2.26 0.0816924
2.27 0.109342
2.28 0.136348
2.29 0.162362
2.3 0.186858
2.31 0.209487
2.32 0.230006
2.33 0.248112
2.34 0.263349
2.35 0.27533
2.36 0.284141
2.37 0.289645
2.38 0.291679
2.39 0.289804
2.4 0.284528
2.41 0.275935
2.42 0.26416
2.43 0.248993
2.44 0.231077
2.45 0.210745
2.46 0.188314
2.47 0.163987
2.48 0.138274
2.49 0.111657
2.5 0.0845239
2.51 0.0572798
2.52 0.0303839
2.53 0.00419857
2.54 -0.0209402
2.55 -0.0446858
2.56 -0.0665351
2.57 -0.0864578
2.58 -0.104268
2.59 -0.119821
2.6 -0.132672
2.61 -0.143064
2.62 -0.151039
2.63 -0.15664
2.64 -0.159723
2.65 -0.160545
2.66 -0.159394
2.67 -0.156461
2.68 -0.151871
2.69 -0.145861
2.7 -0.138824
2.71 -0.131012
2.72 -0.122676
2.73 -0.114082
2.74 -0.105531
2.75 -0.097253
2.76 -0.0894589
2.77 -0.0824632
2.78 -0.0763626
2.79 -0.0712803
2.8 -0.067323
2.81 -0.0647006
2.82 -0.063403
2.83 -0.0633731
2.84 -0.064592
2.85 -0.0670876
2.86 -0.0708019
2.87 -0.0755193
2.88 -0.0811166
2.89 -0.0874676
2.9 -0.0944506
2.91 -0.101801
2.92 -0.109342
2.93 -0.116892
2.94 -0.124219
2.95 -0.131145
2.96 -0.137504
2.97 -0.143137
2.98 -0.14779
2.99 -0.151362
3 -0.153793
3.01 -0.154997
3.02 -0.15482
3.03 -0.15318
3.04 -0.150186
3.05 -0.145848
3.06 -0.140165
3.07 -0.133072
3.08 -0.124822
3.09 -0.115512
3.1 -0.105257
3.11 -0.094084
3.12 -0.0822621
3.13 -0.0699491
3.14 -0.0572971
3.15 -0.0444564
3.16 -0.0316137
3.17 -0.0189213
3.18 -0.00651436
3.19 0.00544642
3.2 0.0168195
3.21 0.0275553
3.22 0.0375817
3.23 0.046822
3.24 0.0551584
3.25 0.0626847
3.26 0.0694125
3.27 0.0753717
3.28 0.0805112
3.29 0.0850059
3.3 0.0889444
3.31 0.0924186
3.32 0.0955006
3.33 0.0983365
3.34 0.101052
3.35 0.103754
3.36 0.10656
3.37 0.109588
3.38 0.112909
3.39 0.116597
3.4 0.120722
3.41 0.125376
3.42 0.130521
3.43 0.13616
3.44 0.142275
3.45 0.148893
3.46 0.155891
3.47 0.163196
3.48 0.170725
3.49 0.178386
3.5 0.186052
3.51 0.193606
3.52 0.200937
3.53 0.207901
3.54 0.214359
3.55 0.220243
3.56 0.225461
3.57 0.229904
3.58 0.233418
3.59 0.236051
3.6 0.237771
3.61 0.238561
3.62 0.238281
3.63 0.23709
3.64 0.235031
3.65 0.232157
3.66 0.228454
3.67 0.224064
3.68 0.219107
3.69 0.213676
3.7 0.207847
3.71 0.201732
3.72 0.195457
3.73 0.189114
3.74 0.182787
3.75 0.176574
3.76 0.170531
3.77 0.164708
3.78 0.159144
3.79 0.153908
3.8 0.148969
3.81 0.14432
3.82 0.139946
3.83 0.135842
3.84 0.131949
3.85 0.12821
3.86 0.124575
3.87 0.120988
3.88 0.117386
3.89 0.113712
3.9 0.109918
3.91 0.105954
3.92 0.101763
3.93 0.0973441
3.94 0.0926838
3.95 0.0877813
3.96 0.0826142
3.97 0.0772457
3.98 0.0717146
3.99 0.0660695
4 0.0603706
4.01 0.0547016
4.02 0.0491411
4.03 0.0437703
4.04 0.0387017
4.05 0.0340405
4.06 0.0298459
4.07 0.0261979
4.08 0.0231963
4.09 0.0209781
4.1 0.019519
4.11 0.0188623
4.12 0.0190395
4.13 0.020204
4.14 0.0222261
4.15 0.0250896
4.16 0.0287673
4.17 0.0333027
4.18 0.0385729
4.19 0.0444763
4.2 0.0509333
4.21 0.0578842
4.22 0.0652141
4.23 0.0727835
4.24 0.0804864
4.25 0.0882116
4.26 0.0958257
4.27 0.103225
4.28 0.110308
4.29 0.116981
4.3 0.123064
4.31 0.128549
4.32 0.13337
4.33 0.137469
4.34 0.140707
4.35 0.143104
4.36 0.144672
4.37 0.145404
4.38 0.145238
4.39 0.14419
4.4 0.142354
4.41 0.139765
4.42 0.136442
4.43 0.132393
4.44 0.127761
4.45 0.12261
4.46 0.117007
4.47 0.110972
4.48 0.104647
4.49 0.0981032
4.5 0.0914109
4.51 0.0846375
4.52 0.0778644
4.53 0.0711546
4.54 0.0645633
4.55 0.0581581
4.56 0.0519899
4.57 0.0460798
4.58 0.0404556
4.59 0.0351516
4.6 0.0302071
4.61 0.0255889
4.62 0.0212936
4.63 0.0173116
4.64 0.013669
4.65 0.0102919
4.66 0.00715039
4.67 0.00420991
4.68 0.00144654
4.69 -0.00120203
4.7 -0.00378613
4.71 -0.00635122
4.72 -0.00894904
4.73 -0.0116331
4.74 -0.0144431
4.75 -0.0174186
4.76 -0.0206059
4.77 -0.0240587
4.78 -0.0277775
4.79 -0.0317815
4.8 -0.0360848
4.81 -0.0407413
4.82 -0.0457019
4.83 -0.0509582
4.84 -0.0564956
4.85 -0.0623223
4.86 -0.0683843
4.87 -0.0746391
4.88 -0.0810499
4.89 -0.0875819
4.9 -0.094182
4.91 -0.100797
4.92 -0.10738
4.93 -0.113881
4.94 -0.120237
4.95 -0.126418
4.96 -0.132385
4.97 -0.138099
4.98 -0.143483
4.99 -0.148552
5 -0.153283
5.01 -0.157662
5.02 -0.16163
5.03 -0.165213
5.04 -0.168423
5.05 -0.171262
5.06 -0.173708
5.07 -0.175775
5.08 -0.177502
5.09 -0.178903
5.1 -0.179978
5.11 -0.180725
5.12 -0.181192
5.13 -0.181392
5.14 -0.181335
5.15 -0.180996
5.16 -0.180421
5.17 -0.179616
5.18 -0.178583
5.19 -0.177295
5.2 -0.175774
5.21 -0.174025
5.22 -0.172046
5.23 -0.169816
5.24 -0.167336
5.25 -0.164623
5.26 -0.16168
5.27 -0.158499
5.28 -0.155076
5.29 -0.151447
5.3 -0.147627
5.31 -0.143633
5.32 -0.139469
5.33 -0.135187
5.34 -0.130816
5.35 -0.126388
5.36 -0.121939
5.37 -0.117513
5.38 -0.113147
5.39 -0.108876
5.4 -0.104751
5.41 -0.100808
5.42 -0.0970669
5.43 -0.093553
5.44 -0.0903
5.45 -0.087342
5.46 -0.084659
5.47 -0.082253
5.48 -0.0801222
5.49 -0.0782908
5.5 -0.0766994
5.51 -0.0753238
5.52 -0.0741352
5.53 -0.0731149
5.54 -0.0722046
5.55 -0.0713592
5.56 -0.0705368
5.57 -0.0696897
5.58 -0.0687688
5.59 -0.0677373
5.6 -0.0665592
5.61 -0.0651923
5.62 -0.0635933
5.63 -0.0617631
5.64 -0.0596884
5.65 -0.0573597
5.66 -0.0547433
5.67 -0.0518859
5.68 -0.0488029
5.69 -0.0455158
5.7 -0.0420327
5.71 -0.0384092
5.72 -0.0346873
5.73 -0.0309071
5.74 -0.0271129
5.75 -0.0233558
5.76 -0.0196785
5.77 -0.0161217
5.78 -0.0127336
5.79 -0.00956597
5.8 -0.00662977
5.81 -0.00394938
5.82 -0.00154742
5.83 0.000522541
5.84 0.00229629
5.85 0.00377419
5.86 0.00496223
5.87 0.00583691
5.88 0.00644737
5.89 0.00682316
5.9 0.00698981
5.91 0.00696185
5.92 0.00678068
5.93 0.0064901
5.94 0.00612259
5.95 0.00570966
5.96 0.00528729
5.97 0.00488827
5.98 0.00453919
5.99 0.00426534
6 0.00410331
6.01 0.00405824
6.02 0.0041438
6.03 0.00437053
6.04 0.00476664
6.05 0.00532081
6.06 0.00603065
6.07 0.00689556
6.08 0.00792736
6.09 0.00911702
6.1 0.0104497
6.11 0.0119202
6.12 0.0135298
6.13 0.0152785
6.14 0.0171475
6.15 0.0191323
6.16 0.0212307
6.17 0.0234529
6.18 0.0257802
6.19 0.0282104
6.2 0.0307414
6.21 0.0333845
6.22 0.036126
6.23 0.038961
6.24 0.041886
6.25 0.0449045
6.26 0.0480071
6.27 0.0511816
6.28 0.0544196
6.29 0.0577139
6.3 0.0610534
6.31 0.0644203
6.32 0.0678009
6.33 0.0711808
6.34 0.0745405
6.35 0.0778657
6.36 0.0811411
6.37 0.0843525
6.38 0.0874734
6.39 0.0904989
6.4 0.0934201
6.41 0.0962279
6.42 0.098903
6.43 0.101444
6.44 0.103856
6.45 0.106139
6.46 0.108287
6.47 0.1103
6.48 0.112196
6.49 0.113981
6.5 0.115661
6.51 0.117235
6.52 0.118725
6.53 0.120138
6.54 0.121482
6.55 0.122755
6.56 0.123969
6.57 0.125129
6.58 0.126234
6.59 0.127277
6.6 0.128257
6.61 0.129171
6.62 0.130011
6.63 0.130762
6.64 0.131407
6.65 0.131944
6.66 0.13236
6.67 0.132638
6.68 0.132749
6.69 0.132699
6.7 0.13248
6.71 0.132082
6.72 0.131474
6.73 0.130674
6.74 0.129684
6.75 0.128506
6.76 0.127128
6.77 0.125566
6.78 0.123841
6.79 0.121966
6.8 0.119946
6.81 0.117798
6.82 0.115551
6.83 0.113223
6.84 0.11083
6.85 0.108389
6.86 0.105923
6.87 0.103448
6.88 0.100978
6.89 0.098527
6.9 0.0961047
6.91 0.0937172
6.92 0.0913692
6.93 0.0890672
6.94 0.0868092
6.95 0.0845906
6.96 0.0824074
6.97 0.0802561
6.98 0.0781302
6.99 0.0760201
7 0.0739191
7.01 0.0718206
7.02 0.0697177
7.03 0.0676058
7.04 0.0654818
7.05 0.063344
7.06 0.0611906
7.07 0.0590255
7.08 0.0568526
7.09 0.054677
7.1 0.0525061
7.11 0.0503487
7.12 0.0482125
7.13 0.0461059
7.14 0.0440398
7.15 0.0420247
7.16 0.0400628
7.17 0.0381589
7.18 0.0363175
7.19 0.0345462
7.2 0.0328348
7.21 0.0311787
7.22 0.0295714
7.23 0.0280081
7.24 0.0264705
7.25 0.0249447
7.26 0.0234158
7.27 0.0218639
7.28 0.0202706
7.29 0.0186209
7.3 0.0168988
7.31 0.0150832
7.32 0.0131562
7.33 0.0111164
7.34 0.00895684
7.35 0.00667005
7.36 0.00424242
7.37 0.0016947
7.38 -0.000965481
7.39 -0.00372698
7.4 -0.00658541
7.41 -0.00950864
7.42 -0.0124743
7.43 -0.0154592
7.44 -0.0184349
7.45 -0.0213713
7.46 -0.0242427
7.47 -0.0270234
7.48 -0.0296794
7.49 -0.0321803
7.5 -0.0345177
7.51 -0.0366749
7.52 -0.0386329
7.53 -0.0403599
7.54 -0.0418775
7.55 -0.0431854
7.56 -0.044287
7.57 -0.0451619
7.58 -0.04585
7.59 -0.0463688
7.6 -0.0467359
7.61 -0.0469587
7.62 -0.0470699
7.63 -0.047098
7.64 -0.0470653
7.65 -0.0469921
7.66 -0.0469023
7.67 -0.0468172
7.68 -0.0467527
7.69 -0.0467236
7.7 -0.0467462
7.71 -0.0468223
7.72 -0.0469552
7.73 -0.0471454
7.74 -0.0473982
7.75 -0.0476997
7.76 -0.0480416
7.77 -0.0484144
7.78 -0.0488081
7.79 -0.0492082
7.8 -0.0496019
7.81 -0.0499779
7.82 -0.0503233
7.83 -0.0506264
7.84 -0.0508832
7.85 -0.0510887
7.86 -0.0512386
7.87 -0.0513272
7.88 -0.0513642
7.89 -0.0513543
7.9 -0.0513042
7.91 -0.0512188
7.92 -0.0511137
7.93 -0.0510001
7.94 -0.0508893
7.95 -0.0507951
7.96 -0.0507288
7.97 -0.0506991
7.98 -0.0507136
7.99 -0.0507823
8 -0.0509102
8.01 -0.0510937
8.02 -0.051331
8.03 -0.0516197
8.04 -0.051956
8.05 -0.0523246
8.06 -0.0527145
8.07 -0.0531135
8.08 -0.0535053
8.09 -0.053875
8.1 -0.0542087
8.11 -0.0544931
8.12 -0.0547078
8.13 -0.0548446
8.14 -0.0548985
8.15 -0.054864
8.16 -0.0547311
8.17 -0.0544989
8.18 -0.0541791
8.19 -0.0537782
8.2 -0.0533031
8.21 -0.0527624
8.22 -0.0521791
8.23 -0.0515691
8.24 -0.0509492
8.25 -0.0503407
8.26 -0.0497619
8.27 -0.0492291
8.28 -0.0487575
8.29 -0.04837
8.3 -0.0480734
8.31 -0.0478715
8.32 -0.047768
8.33 -0.0477706
8.34 -0.0478759
8.35 -0.048068
8.36 -0.0483359
8.37 -0.048667
8.38 -0.0490454
8.39 -0.0494441
8.4 -0.0498418
8.41 -0.0502164
8.42 -0.0505345
8.43 -0.0507784
8.44 -0.0509272
8.45 -0.0509616
8.46 -0.0508477
8.47 -0.0505791
8.48 -0.0501519
8.49 -0.04956
8.5 -0.0487882
8.51 -0.0478379
8.52 -0.04673
8.53 -0.0454748
8.54 -0.0440817
8.55 -0.0425612
8.56 -0.0409494
8.57 -0.0392684
8.58 -0.0375417
8.59 -0.0357937
8.6 -0.0340547
8.61 -0.032348
8.62 -0.0306956
8.63 -0.0291283
8.64 -0.0276605
8.65 -0.0263028
8.66 -0.025066
8.67 -0.0239678
8.68 -0.023013
8.69 -0.0221905
8.7 -0.0214967
8.71 -0.0209291
8.72 -0.0204859
8.73 -0.0201403
8.74 -0.0198784
8.75 -0.0196852
8.76 -0.0195508
8.77 -0.0194494
8.78 -0.0193654
8.79 -0.0192844
8.8 -0.0191907
8.81 -0.0190722
8.82 -0.0189202
8.83 -0.0187281
8.84 -0.0184871
8.85 -0.0181947
8.86 -0.0178544
8.87 -0.0174682
8.88 -0.0170379
8.89 -0.0165662
8.9 -0.0160638
8.91 -0.0155368
8.92 -0.0149912
8.93 -0.0144317
8.94 -0.0138656
8.95 -0.0132966
8.96 -0.012727
8.97 -0.0121575
8.98 -0.0115869
8.99 -0.0110123
9 -0.010429
9.01 -0.00982942
9.02 -0.00920486
9.03 -0.00854831
9.04 -0.00785106
9.05 -0.00710183
9.06 -0.00628621
9.07 -0.00540278
9.08 -0.00444526
9.09 -0.0034087
9.1 -0.00227727
9.11 -0.0010636
9.12 0.000229975
9.13 0.00159874
9.14 0.00304268
9.15 0.00454454
9.16 0.00608947
9.17 0.00766329
9.18 0.00925004
9.19 0.0108294
9.2 0.0123834
9.21 0.0138945
9.22 0.015343
9.23 0.0167052
9.24 0.0179752
9.25 0.019142
9.26 0.0201967
9.27 0.0211155
9.28 0.021915
9.29 0.0225973
9.3 0.0231678
9.31 0.0236239
9.32 0.0239888
9.33 0.0242816
9.34 0.0245197
9.35 0.0247212
9.36 0.0249112
9.37 0.025113
9.38 0.0253473
9.39 0.0256372
9.4 0.0260092
9.41 0.0264718
9.42 0.0270377
9.43 0.0277168
9.44 0.028533
9.45 0.029469
9.46 0.0305217
9.47 0.0316837
9.48 0.0329545
9.49 0.034308
9.5 0.0357221
9.51 0.0371759
9.52 0.0386459
9.53 0.0401029
9.54 0.0415214
9.55 0.0428771
9.56 0.0441423
9.57 0.0452849
9.58 0.0462977
9.59 0.0471664
9.6 0.0478793
9.61 0.0484055
9.62 0.0487685
9.63 0.0489721
9.64 0.0490243
9.65 0.0489218
9.66 0.0486972
9.67 0.0483756
9.68 0.0479805
9.69 0.0475356
9.7 0.047074
9.71 0.0466261
9.72 0.0462189
9.73 0.0458823
9.74 0.0456496
9.75 0.0455324
9.76 0.0455467
9.77 0.0457057
9.78 0.0460388
9.79 0.0465247
9.8 0.0471592
9.81 0.0479332
9.82 0.0488463
9.83 0.0498644
9.84 0.0509595
9.85 0.0521047
9.86 0.0532689
9.87 0.0544136
9.88 0.055505
9.89 0.05651
9.9 0.0573892
9.91 0.0580978
9.92 0.0586231
9.93 0.0589416
9.94 0.0590316
9.95 0.0588428
9.96 0.0584018
9.97 0.0577056
9.98 0.0567565
9.99 0.0555319
10 0.0540717
10.01 0.0524019
10.02 0.0505454
10.03 0.0485165
10.04 0.0463534
10.05 0.0440985
10.06 0.0417842
10.07 0.0394434
10.08 0.037114
10.09 0.0348281
10.1 0.032613
10.11 0.0304944
10.12 0.0285122
10.13 0.0266664
10.14 0.024968
10.15 0.0234233
10.16 0.0220543
10.17 0.0208404
10.18 0.0197687
10.19 0.0188264
10.2 0.0180061
10.21 0.0172819
10.22 0.0166242
10.23 0.0160094
10.24 0.0154127
10.25 0.0148047
10.26 0.0141606
10.27 0.0134581
10.28 0.0126758
10.29 0.0117809
10.3 0.0107721
10.31 0.00963947
10.32 0.00837655
10.33 0.00696324
10.34 0.00541593
10.35 0.00374441
10.36 0.00195835
10.37 6.26016e-05
10.38 -0.00192096
10.39 -0.00396701
10.4 -0.00605512
10.41 -0.00816349
10.42 -0.0102656
10.43 -0.0123375
10.44 -0.0143576
10.45 -0.0163043
10.46 -0.0181438
10.47 -0.0198714
10.48 -0.0214735
10.49 -0.0229392
10.5 -0.0242401
10.51 -0.0253871
10.52 -0.0263827
10.53 -0.0272288
10.54 -0.0279168
10.55 -0.0284599
10.56 -0.0288777
10.57 -0.029182
10.58 -0.0293815
10.59 -0.0294896
10.6 -0.0295317
10.61 -0.0295235
10.62 -0.0294802
10.63 -0.0294167
10.64 -0.0293511
10.65 -0.0292961
10.66 -0.0292629
10.67 -0.0292664
10.68 -0.0293118
10.69 -0.0294036
10.7 -0.0295454
10.71 -0.029744
10.72 -0.0299975
10.73 -0.0303004
10.74 -0.0306493
10.75 -0.0310412
10.76 -0.0314709
10.77 -0.0319272
10.78 -0.0324026
10.79 -0.0328896
10.8 -0.0333791
10.81 -0.0338621
10.82 -0.0343311
10.83 -0.0347791
10.84 -0.0351949
10.85 -0.0355753
10.86 -0.0359163
10.87 -0.0362139
10.88 -0.0364604
10.89 -0.0366552
10.9 -0.0368003
10.91 -0.0368956
10.92 -0.0369391
10.93 -0.0369305
10.94 -0.0368773
10.95 -0.0367823
10.96 -0.0366485
10.97 -0.0364762
10.98 -0.0362751
10.99 -0.0360499
11 -0.0358055
11.01 -0.0355454
11.02 -0.0352772
11.03 -0.035006
11.04 -0.0347367
11.05 -0.0344752
11.06 -0.0342264
11.07 -0.0339941
11.08 -0.0337817
11.09 -0.0335943
11.1 -0.0334359
11.11 -0.0333062
11.12 -0.0332065
11.13 -0.033138
11.14 -0.0331042
11.15 -0.0330995
11.16 -0.033122
11.17 -0.0331689
11.18 -0.0332388
11.19 -0.0333238
11.2 -0.0334182
11.21 -0.0335155
11.22 -0.0336079
11.23 -0.0336867
11.24 -0.033744
11.25 -0.0337719
11.26 -0.033759
11.27 -0.033694
11.28 -0.0335728
11.29 -0.0333882
11.3 -0.0331318
11.31 -0.0327881
11.32 -0.0323627
11.33 -0.0318522
11.34 -0.031255
11.35 -0.0305583
11.36 -0.0297748
11.37 -0.0289093
11.38 -0.0279666
11.39 -0.0269467
11.4 -0.0258625
11.41 -0.0247276
11.42 -0.0235529
11.43 -0.0223491
11.44 -0.0211309
11.45 -0.0199137
11.46 -0.018711
11.47 -0.0175368
11.48 -0.0164103
11.49 -0.0153391
11.5 -0.0143338
11.51 -0.0134038
11.52 -0.0125697
11.53 -0.0118276
11.54 -0.0111795
11.55 -0.0106274
11.56 -0.0101805
11.57 -0.00983114
11.58 -0.00956921
11.59 -0.00938807
11.6 -0.00928354
11.61 -0.00924592
11.62 -0.00925739
11.63 -0.0093062
11.64 -0.0093804
11.65 -0.00946698
11.66 -0.00955099
11.67 -0.00962109
11.68 -0.0096669
11.69 -0.00967323
11.7 -0.00963615
11.71 -0.00955076
11.72 -0.00941353
11.73 -0.00921726
11.74 -0.00896568
11.75 -0.00866479
11.76 -0.00831958
11.77 -0.00793485
11.78 -0.00751989
11.79 -0.00708801
11.8 -0.00665001
11.81 -0.00621776
11.82 -0.00580672
11.83 -0.0054272
11.84 -0.00509002
11.85 -0.00480511
11.86 -0.00459116
11.87 -0.00444774
11.88 -0.00437877
11.89 -0.00438705
11.9 -0.00448141
11.91 -0.00465533
