[DEFAULT]

version = diffpy.pdfgetx-2.2.1

# input and output specifications
dataformat = twotheta
inputfile = Synthetic_CSH_400degC_normalized.chi
backgroundfiles = quartz_030degC_normalized.chi
outputtype = gr

# PDF calculation setup
mode = xray
wavelength = 0.2113
twothetazero = 0
composition = CaO SiO2
bgscales = 1.0
rpoly = 0.9
qmaxinst = 23.7031
qmin = 0.5
qmax = 20
rmin = 0
rmax = 60
rstep = 0.01

# End of config --------------------------------------------------------------

#### start data
#S 1
#L r(Å)  G(Å$^{-2}$)
0 0
0.01 -0.00255698
0.02 -0.00502221
0.03 -0.00731784
0.04 -0.00937086
0.05 -0.0110708
0.06 -0.0123789
0.07 -0.0132649
0.08 -0.0136986
0.09 -0.0136245
0.1 -0.0130423
0.11 -0.0120053
0.12 -0.0105431
0.13 -0.00868516
0.14 -0.00647311
0.15 -0.00402027
0.16 -0.0014043
0.17 0.00129069
0.18 0.00396048
0.19 0.00650622
0.2 0.00883952
0.21 0.0108762
0.22 0.0124845
0.23 0.0136194
0.24 0.0142428
0.25 0.014316
0.26 0.0137676
0.27 0.0125956
0.28 0.0108615
0.29 0.00859969
0.3 0.00584454
0.31 0.00264921
0.32 -0.000843194
0.33 -0.00453077
0.34 -0.0083005
0.35 -0.0120045
0.36 -0.0155064
0.37 -0.0186763
0.38 -0.0213861
0.39 -0.0234254
0.4 -0.0247142
0.41 -0.0251752
0.42 -0.0247238
0.43 -0.0232064
0.44 -0.0205778
0.45 -0.0168951
0.46 -0.0121628
0.47 -0.00636561
0.48 0.000501885
0.49 0.00824118
0.5 0.0167505
0.51 0.0259114
0.52 0.0356395
0.53 0.0456839
0.54 0.0558799
0.55 0.066057
0.56 0.075996
0.57 0.0855174
0.58 0.0944649
0.59 0.102684
0.6 0.109949
0.61 0.116121
0.62 0.121168
0.63 0.125011
0.64 0.127532
0.65 0.128606
0.66 0.128377
0.67 0.126861
0.68 0.124092
0.69 0.119963
0.7 0.114746
0.71 0.108533
0.72 0.101428
0.73 0.0934566
0.74 0.0848236
0.75 0.0756676
0.76 0.0660984
0.77 0.0562006
0.78 0.0460886
0.79 0.0358621
0.8 0.0255863
0.81 0.0153145
0.82 0.00509059
0.83 -0.00506832
0.84 -0.0151563
0.85 -0.0251779
0.86 -0.0351432
0.87 -0.0450839
0.88 -0.0550255
0.89 -0.0649929
0.9 -0.075017
0.91 -0.0851101
0.92 -0.0952751
0.93 -0.105505
0.94 -0.11578
0.95 -0.126055
0.96 -0.136271
0.97 -0.146358
0.98 -0.156215
0.99 -0.165704
1 -0.174741
1.01 -0.183209
1.02 -0.190978
1.03 -0.197795
1.04 -0.203656
1.05 -0.208461
1.06 -0.212123
1.07 -0.214413
1.08 -0.215405
1.09 -0.21513
1.1 -0.21361
1.11 -0.210797
1.12 -0.206826
1.13 -0.201905
1.14 -0.196193
1.15 -0.189855
1.16 -0.183119
1.17 -0.17628
1.18 -0.16958
1.19 -0.163279
1.2 -0.157751
1.21 -0.153164
1.22 -0.149734
1.23 -0.14765
1.24 -0.147285
1.25 -0.14861
1.26 -0.151637
1.27 -0.156375
1.28 -0.162919
1.29 -0.1711
1.3 -0.180626
1.31 -0.191271
1.32 -0.20278
1.33 -0.214788
1.34 -0.226839
1.35 -0.238527
1.36 -0.249414
1.37 -0.258828
1.38 -0.266473
1.39 -0.271934
1.4 -0.274824
1.41 -0.274362
1.42 -0.270524
1.43 -0.263167
1.44 -0.252134
1.45 -0.236996
1.46 -0.217864
1.47 -0.195101
1.48 -0.168901
1.49 -0.13939
1.5 -0.106853
1.51 -0.0720729
1.52 -0.0355624
1.53 0.00211704
1.54 0.0403216
1.55 0.0782555
1.56 0.115258
1.57 0.150671
1.58 0.183464
1.59 0.213188
1.6 0.239348
1.61 0.261448
1.62 0.278603
1.63 0.290548
1.64 0.297355
1.65 0.298886
1.66 0.294815
1.67 0.284963
1.68 0.270074
1.69 0.250423
1.7 0.226307
1.71 0.197725
1.72 0.165817
1.73 0.131146
1.74 0.0943123
1.75 0.0558175
1.76 0.0165526
1.77 -0.0228262
1.78 -0.0617205
1.79 -0.0994135
1.8 -0.135337
1.81 -0.169126
1.82 -0.200407
1.83 -0.228706
1.84 -0.253626
1.85 -0.275344
1.86 -0.293816
1.87 -0.309016
1.88 -0.320674
1.89 -0.329426
1.9 -0.335501
1.91 -0.339168
1.92 -0.340481
1.93 -0.340048
1.94 -0.338244
1.95 -0.335389
1.96 -0.331745
1.97 -0.32766
1.98 -0.323406
1.99 -0.319168
2 -0.315097
2.01 -0.311292
2.02 -0.307747
2.03 -0.304418
2.04 -0.301211
2.05 -0.297953
2.06 -0.294435
2.07 -0.290432
2.08 -0.285694
2.09 -0.279782
2.1 -0.272511
2.11 -0.263644
2.12 -0.252943
2.13 -0.239976
2.14 -0.224624
2.15 -0.206901
2.16 -0.186745
2.17 -0.164009
2.18 -0.138672
2.19 -0.111117
2.2 -0.0815398
2.21 -0.0501657
2.22 -0.0171862
2.23 0.0167907
2.24 0.0513572
2.25 0.0860761
2.26 0.120379
2.27 0.15377
2.28 0.185787
2.29 0.215976
2.3 0.243634
2.31 0.268389
2.32 0.290034
2.33 0.308273
2.34 0.322633
2.35 0.332765
2.36 0.338942
2.37 0.341136
2.38 0.3393
2.39 0.333113
2.4 0.323298
2.41 0.310091
2.42 0.293774
2.43 0.274327
2.44 0.252509
2.45 0.228759
2.46 0.203484
2.47 0.177027
2.48 0.149921
2.49 0.122622
2.5 0.0955069
2.51 0.0689846
2.52 0.0434621
2.53 0.0191527
2.54 -0.00371005
2.55 -0.0248928
2.56 -0.044024
2.57 -0.0612432
2.58 -0.0765001
2.59 -0.0897837
2.6 -0.100848
2.61 -0.110014
2.62 -0.11741
2.63 -0.123157
2.64 -0.127251
2.65 -0.129947
2.66 -0.131493
2.67 -0.132057
2.68 -0.131767
2.69 -0.130795
2.7 -0.129373
2.71 -0.127643
2.72 -0.125737
2.73 -0.123785
2.74 -0.121904
2.75 -0.12018
2.76 -0.11868
2.77 -0.117505
2.78 -0.116661
2.79 -0.116166
2.8 -0.116034
2.81 -0.116302
2.82 -0.116942
2.83 -0.117915
2.84 -0.119199
2.85 -0.120779
2.86 -0.122621
2.87 -0.124661
2.88 -0.126855
2.89 -0.129162
2.9 -0.131532
2.91 -0.133901
2.92 -0.136219
2.93 -0.138432
2.94 -0.140453
2.95 -0.14224
2.96 -0.143738
2.97 -0.14489
2.98 -0.14559
2.99 -0.145797
3 -0.14548
3.01 -0.144592
3.02 -0.143044
3.03 -0.140777
3.04 -0.137821
3.05 -0.134158
3.06 -0.129757
3.07 -0.124546
3.08 -0.118637
3.09 -0.112055
3.1 -0.104841
3.11 -0.0969654
3.12 -0.0885787
3.13 -0.0797605
3.14 -0.0705918
3.15 -0.0611414
3.16 -0.0515321
3.17 -0.0418709
3.18 -0.032251
3.19 -0.022778
3.2 -0.013557
3.21 -0.0046478
3.22 0.00388655
3.23 0.0119819
3.24 0.0195512
3.25 0.026636
3.26 0.033237
3.27 0.0393716
3.28 0.0450155
3.29 0.0502877
3.3 0.0552603
3.31 0.0600128
3.32 0.0646308
3.33 0.0692356
3.34 0.0739338
3.35 0.0788263
3.36 0.0840384
3.37 0.0896852
3.38 0.0958168
3.39 0.102498
3.4 0.109796
3.41 0.117807
3.42 0.126457
3.43 0.13573
3.44 0.145586
3.45 0.156037
3.46 0.166912
3.47 0.178104
3.48 0.189493
3.49 0.200935
3.5 0.212257
3.51 0.223303
3.52 0.233919
3.53 0.243896
3.54 0.253045
3.55 0.261284
3.56 0.26849
3.57 0.274516
3.58 0.279144
3.59 0.282465
3.6 0.284441
3.61 0.28506
3.62 0.284134
3.63 0.281902
3.64 0.278439
3.65 0.27383
3.66 0.268073
3.67 0.261377
3.68 0.253922
3.69 0.245849
3.7 0.237278
3.71 0.228376
3.72 0.219321
3.73 0.210243
3.74 0.201269
3.75 0.19254
3.76 0.184126
3.77 0.176093
3.78 0.168491
3.79 0.161421
3.8 0.154823
3.81 0.148683
3.82 0.142971
3.83 0.137682
3.84 0.132725
3.85 0.128016
3.86 0.123483
3.87 0.119056
3.88 0.114649
3.89 0.110186
3.9 0.10561
3.91 0.100863
3.92 0.0958861
3.93 0.0906825
3.94 0.0852485
3.95 0.0795963
3.96 0.0737304
3.97 0.0677316
3.98 0.0616622
3.99 0.0555962
4 0.0496388
4.01 0.0438918
4.02 0.0384496
4.03 0.0334122
4.04 0.0289251
4.05 0.0251061
4.06 0.0219969
4.07 0.0196732
4.08 0.0182316
4.09 0.0178055
4.1 0.0183165
4.11 0.0197759
4.12 0.0221776
4.13 0.0256365
4.14 0.0299612
4.15 0.0350871
4.16 0.0409378
4.17 0.0474869
4.18 0.0545684
4.19 0.0620453
4.2 0.0698014
4.21 0.0777199
4.22 0.0856572
4.23 0.0934859
4.24 0.101095
4.25 0.108362
4.26 0.115143
4.27 0.121397
4.28 0.127056
4.29 0.132061
4.3 0.136252
4.31 0.139709
4.32 0.142416
4.33 0.144373
4.34 0.1455
4.35 0.145882
4.36 0.145577
4.37 0.144624
4.38 0.143022
4.39 0.140827
4.4 0.138138
4.41 0.135006
4.42 0.131468
4.43 0.127556
4.44 0.123363
4.45 0.11893
4.46 0.114299
4.47 0.109485
4.48 0.104548
4.49 0.0995151
4.5 0.0944094
4.51 0.0892462
4.52 0.0840483
4.53 0.078831
4.54 0.0736053
4.55 0.0683817
4.56 0.0631702
4.57 0.057978
4.58 0.0528121
4.59 0.0476806
4.6 0.0425944
4.61 0.0375554
4.62 0.0325694
4.63 0.0276416
4.64 0.0227869
4.65 0.0179988
4.66 0.0132787
4.67 0.00862611
4.68 0.00404621
4.69 -0.000472443
4.7 -0.0049402
4.71 -0.0093674
4.72 -0.0137659
4.73 -0.0181542
4.74 -0.0225522
4.75 -0.026979
4.76 -0.0314579
4.77 -0.0360186
4.78 -0.0406754
4.79 -0.0454476
4.8 -0.0503536
4.81 -0.0554337
4.82 -0.0606776
4.83 -0.066093
4.84 -0.0716831
4.85 -0.0774678
4.86 -0.0834238
4.87 -0.0895322
4.88 -0.0957758
4.89 -0.10214
4.9 -0.10859
4.91 -0.115088
4.92 -0.121599
4.93 -0.128083
4.94 -0.13449
4.95 -0.140784
4.96 -0.146927
4.97 -0.15288
4.98 -0.158568
4.99 -0.163989
5 -0.169115
5.01 -0.17392
5.02 -0.17834
5.03 -0.182387
5.04 -0.186063
5.05 -0.189363
5.06 -0.192253
5.07 -0.194739
5.08 -0.196858
5.09 -0.198617
5.1 -0.200013
5.11 -0.201038
5.12 -0.201743
5.13 -0.202143
5.14 -0.202246
5.15 -0.202025
5.16 -0.201532
5.17 -0.200774
5.18 -0.199755
5.19 -0.198445
5.2 -0.196868
5.21 -0.19503
5.22 -0.19293
5.23 -0.190538
5.24 -0.187854
5.25 -0.184894
5.26 -0.181657
5.27 -0.178129
5.28 -0.174297
5.29 -0.170197
5.3 -0.165842
5.31 -0.161244
5.32 -0.156393
5.33 -0.15135
5.34 -0.146143
5.35 -0.140806
5.36 -0.135365
5.37 -0.129876
5.38 -0.124381
5.39 -0.118922
5.4 -0.113553
5.41 -0.108318
5.42 -0.103251
5.43 -0.0983865
5.44 -0.0937671
5.45 -0.0894389
5.46 -0.0853936
5.47 -0.0816433
5.48 -0.0781966
5.49 -0.0750938
5.5 -0.0722795
5.51 -0.0697377
5.52 -0.0674467
5.53 -0.0654042
5.54 -0.0635511
5.55 -0.0618446
5.56 -0.0602465
5.57 -0.05872
5.58 -0.0572166
5.59 -0.0556944
5.6 -0.0541181
5.61 -0.0524498
5.62 -0.0506508
5.63 -0.0487108
5.64 -0.0466147
5.65 -0.0443516
5.66 -0.0418964
5.67 -0.0392797
5.68 -0.0365132
5.69 -0.0336143
5.7 -0.0305945
5.71 -0.0274965
5.72 -0.0243545
5.73 -0.021202
5.74 -0.0180796
5.75 -0.0150286
5.76 -0.012081
5.77 -0.00926935
5.78 -0.00663346
5.79 -0.00421481
5.8 -0.00201577
5.81 -5.27955e-05
5.82 0.00165931
5.83 0.00307916
5.84 0.00424371
5.85 0.0051576
5.86 0.00582987
5.87 0.00624532
5.88 0.00644757
5.89 0.00646287
5.9 0.00631322
5.91 0.00601118
5.92 0.00558913
5.93 0.00508027
5.94 0.00450799
5.95 0.00389365
5.96 0.0032607
5.97 0.00263157
5.98 0.00202297
5.99 0.00145046
6 0.000935425
6.01 0.000483089
6.02 0.000103159
6.03 -0.000195585
6.04 -0.000391816
6.05 -0.000486052
6.06 -0.000472264
6.07 -0.00034146
6.08 -7.06136e-05
6.09 0.000349917
6.1 0.000924435
6.11 0.00166692
6.12 0.00260359
6.13 0.00376368
6.14 0.00514451
6.15 0.00676312
6.16 0.00864034
6.17 0.0108291
6.18 0.0133056
6.19 0.0160808
6.2 0.0191629
6.21 0.022599
6.22 0.0263539
6.23 0.0304145
6.24 0.0347704
6.25 0.0394312
6.26 0.0443624
6.27 0.0495191
6.28 0.0548697
6.29 0.0603848
6.3 0.0660226
6.31 0.0717242
6.32 0.0774449
6.33 0.0831373
6.34 0.0887388
6.35 0.0942108
6.36 0.099511
6.37 0.104601
6.38 0.109406
6.39 0.113923
6.4 0.118134
6.41 0.122021
6.42 0.12554
6.43 0.128698
6.44 0.131519
6.45 0.134013
6.46 0.136176
6.47 0.138017
6.48 0.139594
6.49 0.140932
6.5 0.142055
6.51 0.142976
6.52 0.143753
6.53 0.144411
6.54 0.144977
6.55 0.145464
6.56 0.1459
6.57 0.1463
6.58 0.14667
6.59 0.147009
6.6 0.147315
6.61 0.14758
6.62 0.147791
6.63 0.147926
6.64 0.147955
6.65 0.147864
6.66 0.147628
6.67 0.147219
6.68 0.146585
6.69 0.14573
6.7 0.144634
6.71 0.143281
6.72 0.141623
6.73 0.139685
6.74 0.137471
6.75 0.134989
6.76 0.132223
6.77 0.129204
6.78 0.125971
6.79 0.12255
6.8 0.118963
6.81 0.115247
6.82 0.111453
6.83 0.107616
6.84 0.103777
6.85 0.0999793
6.86 0.096258
6.87 0.0926442
6.88 0.089166
6.89 0.0858734
6.9 0.0827683
6.91 0.0798615
6.92 0.0771619
6.93 0.0746956
6.94 0.0724516
6.95 0.0704116
6.96 0.0685657
6.97 0.0669109
6.98 0.0654334
6.99 0.0640975
7 0.0628834
7.01 0.0617724
7.02 0.0607502
7.03 0.0597842
7.04 0.0588565
7.05 0.0579506
7.06 0.0570514
7.07 0.0561447
7.08 0.0552211
7.09 0.0542738
7.1 0.0532944
7.11 0.0522812
7.12 0.0512349
7.13 0.0501555
7.14 0.0490419
7.15 0.0478943
7.16 0.0467167
7.17 0.0455095
7.18 0.0442711
7.19 0.0429957
7.2 0.0416838
7.21 0.0403305
7.22 0.0389291
7.23 0.0374626
7.24 0.0359279
7.25 0.0343159
7.26 0.0326162
7.27 0.0308072
7.28 0.0288824
7.29 0.0268389
7.3 0.0246696
7.31 0.0223607
7.32 0.0199058
7.33 0.0173182
7.34 0.0146018
7.35 0.0117604
7.36 0.00879422
7.37 0.0057331
7.38 0.00259361
7.39 -0.000605358
7.4 -0.00384532
7.41 -0.00709562
7.42 -0.0103324
7.43 -0.0135319
7.44 -0.0166622
7.45 -0.019701
7.46 -0.0226318
7.47 -0.0254373
7.48 -0.0280925
7.49 -0.0305805
7.5 -0.0329074
7.51 -0.03507
7.52 -0.0370639
7.53 -0.038877
7.54 -0.0405387
7.55 -0.0420595
7.56 -0.0434521
7.57 -0.0447165
7.58 -0.0458859
7.59 -0.0469778
7.6 -0.0480081
7.61 -0.0489883
7.62 -0.0499364
7.63 -0.0508656
7.64 -0.0517843
7.65 -0.0526979
7.66 -0.0536091
7.67 -0.0545168
7.68 -0.0554169
7.69 -0.056302
7.7 -0.0571586
7.71 -0.0579774
7.72 -0.0587458
7.73 -0.0594506
7.74 -0.0600655
7.75 -0.0605873
7.76 -0.0610066
7.77 -0.0613149
7.78 -0.0614933
7.79 -0.0615466
7.8 -0.0614823
7.81 -0.061306
7.82 -0.0610202
7.83 -0.0606386
7.84 -0.0601871
7.85 -0.0596848
7.86 -0.0591529
7.87 -0.0586178
7.88 -0.0581061
7.89 -0.0576413
7.9 -0.0572458
7.91 -0.0569563
7.92 -0.0567796
7.93 -0.0567283
7.94 -0.0568119
7.95 -0.0570512
7.96 -0.057437
7.97 -0.0579563
7.98 -0.0585985
7.99 -0.0593547
8 -0.0602025
8.01 -0.061109
8.02 -0.0620478
8.03 -0.0629898
8.04 -0.0638986
8.05 -0.064746
8.06 -0.0655048
8.07 -0.06615
8.08 -0.0666365
8.09 -0.0669651
8.1 -0.0671257
8.11 -0.067112
8.12 -0.0669044
8.13 -0.066522
8.14 -0.0659858
8.15 -0.0653139
8.16 -0.0645229
8.17 -0.0636449
8.18 -0.0627201
8.19 -0.0617816
8.2 -0.0608652
8.21 -0.0600154
8.22 -0.0592599
8.23 -0.0586275
8.24 -0.0581427
8.25 -0.0578537
8.26 -0.05775
8.27 -0.0578364
8.28 -0.0581119
8.29 -0.0585876
8.3 -0.0592323
8.31 -0.0600145
8.32 -0.0609048
8.33 -0.0618715
8.34 -0.062868
8.35 -0.0638464
8.36 -0.0647631
8.37 -0.0655692
8.38 -0.0662018
8.39 -0.0666366
8.4 -0.0668391
8.41 -0.0667801
8.42 -0.0663897
8.43 -0.0656949
8.44 -0.0646913
8.45 -0.0633811
8.46 -0.0617425
8.47 -0.0598194
8.48 -0.0576527
8.49 -0.0552764
8.5 -0.0527209
8.51 -0.0500385
8.52 -0.0472906
8.53 -0.0445259
8.54 -0.0417964
8.55 -0.0391638
8.56 -0.0366657
8.57 -0.0343403
8.58 -0.0322203
8.59 -0.0303712
8.6 -0.0287763
8.61 -0.0274434
8.62 -0.0263729
8.63 -0.025586
8.64 -0.0250446
8.65 -0.0247143
8.66 -0.0245657
8.67 -0.0245732
8.68 -0.0246915
8.69 -0.0248691
8.7 -0.0250657
8.71 -0.0252399
8.72 -0.0253439
8.73 -0.0253498
8.74 -0.0252311
8.75 -0.024967
8.76 -0.0245172
8.77 -0.0239008
8.78 -0.023121
8.79 -0.0221876
8.8 -0.0211037
8.81 -0.0199079
8.82 -0.0186352
8.83 -0.0173192
8.84 -0.0159985
8.85 -0.0147186
8.86 -0.0135165
8.87 -0.0124275
8.88 -0.0114907
8.89 -0.0107517
8.9 -0.0102123
8.91 -0.00988583
8.92 -0.00977864
8.93 -0.00992257
8.94 -0.0102705
8.95 -0.010803
8.96 -0.0114937
8.97 -0.0123202
8.98 -0.0132268
8.99 -0.0141654
9 -0.0150897
9.01 -0.0159433
9.02 -0.0166701
9.03 -0.0172316
9.04 -0.0175874
9.05 -0.0176909
9.06 -0.0174879
9.07 -0.0169889
9.08 -0.0161825
9.09 -0.0150657
9.1 -0.0135991
9.11 -0.0118495
9.12 -0.00984223
9.13 -0.00761018
9.14 -0.00517525
9.15 -0.00260522
9.16 4.41376e-05
9.17 0.00272196
9.18 0.0053708
9.19 0.00793122
9.2 0.0103599
9.21 0.0126157
9.22 0.0146529
9.23 0.0164218
9.24 0.0179299
9.25 0.0191682
9.26 0.020135
9.27 0.0208009
9.28 0.0212276
9.29 0.0214418
9.3 0.0214771
9.31 0.0213604
9.32 0.0211545
9.33 0.0209109
9.34 0.0206768
9.35 0.0205074
9.36 0.0204549
9.37 0.0205531
9.38 0.0208357
9.39 0.0213403
9.4 0.0221054
9.41 0.0231149
9.42 0.0243696
9.43 0.0258633
9.44 0.0276103
9.45 0.0295487
9.46 0.0316473
9.47 0.0338691
9.48 0.0361782
9.49 0.038517
9.5 0.0408385
9.51 0.0430989
9.52 0.0452449
9.53 0.0472336
9.54 0.0490427
9.55 0.050648
9.56 0.0520216
9.57 0.0531385
9.58 0.0540258
9.59 0.0546928
9.6 0.0551557
9.61 0.0554173
9.62 0.0555402
9.63 0.0555617
9.64 0.0555223
9.65 0.0554682
9.66 0.0554506
9.67 0.0555117
9.68 0.0556903
9.69 0.0560369
9.7 0.0565826
9.71 0.0573358
9.72 0.0583086
9.73 0.059515
9.74 0.0609622
9.75 0.0626086
9.76 0.0644297
9.77 0.0663944
9.78 0.0684719
9.79 0.070596
9.8 0.0727169
9.81 0.0747827
9.82 0.0767196
9.83 0.0784789
9.84 0.0800154
9.85 0.0812848
9.86 0.082218
9.87 0.0827838
9.88 0.0829831
9.89 0.082803
9.9 0.082221
9.91 0.0812217
9.92 0.0798647
9.93 0.0781752
9.94 0.0761834
9.95 0.0738989
9.96 0.0714109
9.97 0.0687685
9.98 0.0660223
9.99 0.0632231
10 0.0604326
10.01 0.0576978
10.02 0.0550598
10.03 0.0525687
10.04 0.0502543
10.05 0.0481252
10.06 0.0461919
10.07 0.044466
10.08 0.04295
10.09 0.041606
10.1 0.0404104
10.11 0.039335
10.12 0.0383511
10.13 0.0374036
10.14 0.0364519
10.15 0.0354553
10.16 0.0343581
10.17 0.0331274
10.18 0.0317338
10.19 0.0301511
10.2 0.0283384
10.21 0.0262865
10.22 0.0240067
10.23 0.0215033
10.24 0.0187786
10.25 0.0158457
10.26 0.0127551
10.27 0.00954016
10.28 0.00623813
10.29 0.00289108
10.3 -0.000446356
10.31 -0.00373066
10.32 -0.0069195
10.33 -0.00995007
10.34 -0.0127965
10.35 -0.015433
10.36 -0.0178362
10.37 -0.0199647
10.38 -0.021815
10.39 -0.0234039
10.4 -0.0247382
10.41 -0.02582
10.42 -0.0266622
10.43 -0.0273172
10.44 -0.0278158
10.45 -0.0281911
10.46 -0.0284734
10.47 -0.0287155
10.48 -0.0289523
10.49 -0.0292165
10.5 -0.0295482
10.51 -0.0299683
10.52 -0.0304927
10.53 -0.0311328
10.54 -0.031905
10.55 -0.0328027
10.56 -0.0338079
10.57 -0.0349048
10.58 -0.0360747
10.59 -0.0372889
10.6 -0.0385105
10.61 -0.0397074
10.62 -0.0408455
10.63 -0.0418755
10.64 -0.042777
10.65 -0.0435231
10.66 -0.044091
10.67 -0.0444347
10.68 -0.044564
10.69 -0.0444803
10.7 -0.0441868
10.71 -0.0436756
10.72 -0.0429739
10.73 -0.0421186
10.74 -0.0411389
10.75 -0.0400653
10.76 -0.0389392
10.77 -0.0378082
10.78 -0.0367115
10.79 -0.0356895
10.8 -0.0347976
10.81 -0.0340553
10.82 -0.033489
10.83 -0.0331196
10.84 -0.0329917
10.85 -0.0330875
10.86 -0.0334
10.87 -0.0339196
10.88 -0.0346458
10.89 -0.0355432
10.9 -0.0365691
10.91 -0.0376882
10.92 -0.038862
10.93 -0.0400414
10.94 -0.0411796
10.95 -0.0422347
10.96 -0.0431643
10.97 -0.0439071
10.98 -0.0444521
10.99 -0.0447752
11 -0.0448589
11.01 -0.0446579
11.02 -0.0442006
11.03 -0.0435
11.04 -0.0425712
11.05 -0.0414191
11.06 -0.0400869
11.07 -0.0386228
11.08 -0.0370668
11.09 -0.0354619
11.1 -0.0338613
11.11 -0.0323136
11.12 -0.0308618
11.13 -0.0295498
11.14 -0.0284394
11.15 -0.0275391
11.16 -0.026871
11.17 -0.0264502
11.18 -0.0263202
11.19 -0.0264474
11.2 -0.0268159
11.21 -0.027407
11.22 -0.0282116
11.23 -0.0291824
11.24 -0.0302694
11.25 -0.0314297
11.26 -0.0326165
11.27 -0.0337734
11.28 -0.0348524
11.29 -0.0358091
11.3 -0.0365977
11.31 -0.0371525
11.32 -0.0374679
11.33 -0.037521
11.34 -0.0372959
11.35 -0.0367433
11.36 -0.0359002
11.37 -0.0347816
11.38 -0.0334046
11.39 -0.0317724
11.4 -0.0299322
11.41 -0.027934
11.42 -0.0258187
11.43 -0.0236281
11.44 -0.0214148
11.45 -0.0192299
11.46 -0.0171168
11.47 -0.0151202
11.48 -0.0132999
11.49 -0.0116701
11.5 -0.0102563
11.51 -0.00907771
11.52 -0.00818378
11.53 -0.00754818
11.54 -0.00716403
11.55 -0.0070222
11.56 -0.00712912
11.57 -0.00744882
11.58 -0.00794237
11.59 -0.00857999
11.6 -0.00933422
11.61 -0.0101669
11.62 -0.0110337
11.63 -0.0119011
11.64 -0.0127357
11.65 -0.013497
11.66 -0.0141653
11.67 -0.01472
11.68 -0.0151447
11.69 -0.0154063
11.7 -0.0155167
11.71 -0.015478
11.72 -0.0152945
11.73 -0.0149617
11.74 -0.0145021
11.75 -0.0139397
11.76 -0.0132938
11.77 -0.0125827
11.78 -0.0118318
11.79 -0.0110688
11.8 -0.0103158
11.81 -0.00959466
11.82 -0.00893275
11.83 -0.00834124
11.84 -0.00783344
11.85 -0.00741972
11.86 -0.00712292
11.87 -0.00693338
11.88 -0.00684974
11.89 -0.0068691
11.9 -0.00699543
11.91 -0.00721366
11.92 -0.00750807
11.93 -0.00786659
