[DEFAULT]

version = diffpy.pdfgetx-2.2.1

# input and output specifications
dataformat = twotheta
inputfile = Synthetic_CSH_CSH_pdf_ramp_800_07_normalized.chi
backgroundfiles = quartz_030degC_normalized.chi
outputtype = gr

# PDF calculation setup
mode = xray
wavelength = 0.2113
twothetazero = 0
composition = CaO SiO2
bgscales = 1.0
rpoly = 0.9
qmaxinst = 23.7031
qmin = 0.5
qmax = 20
rmin = 0
rmax = 60
rstep = 0.01

# End of config --------------------------------------------------------------

#### start data
#S 1
#L r(Å)  G(Å$^{-2}$)
0 0
0.01 -0.00173195
0.02 -0.00340458
0.03 -0.0049674
0.04 -0.00637284
0.05 -0.00754847
0.06 -0.00846785
0.07 -0.00910992
0.08 -0.0094529
0.09 -0.00945749
0.1 -0.00912018
0.11 -0.00847324
0.12 -0.00753294
0.13 -0.00631481
0.14 -0.0048415
0.15 -0.00318769
0.16 -0.00140337
0.17 0.000456216
0.18 0.0023244
0.19 0.00412945
0.2 0.00580874
0.21 0.00730096
0.22 0.00851111
0.23 0.00939931
0.24 0.00993078
0.25 0.0100695
0.26 0.00975353
0.27 0.00896924
0.28 0.0077511
0.29 0.00611364
0.3 0.00406995
0.31 0.00164512
0.32 -0.00105689
0.33 -0.00396505
0.34 -0.00699731
0.35 -0.0100507
0.36 -0.0130072
0.37 -0.0157594
0.38 -0.0181969
0.39 -0.0201421
0.4 -0.0215073
0.41 -0.0222068
0.42 -0.022147
0.43 -0.0211679
0.44 -0.0191956
0.45 -0.0162472
0.46 -0.0122922
0.47 -0.00727532
0.48 -0.00113961
0.49 0.00595841
0.5 0.0139589
0.51 0.0227842
0.52 0.032423
0.53 0.0426251
0.54 0.0532485
0.55 0.0641376
0.56 0.0751153
0.57 0.0859697
0.58 0.0965179
0.59 0.106579
0.6 0.115905
0.61 0.124299
0.62 0.131658
0.63 0.137842
0.64 0.142662
0.65 0.145903
0.66 0.147643
0.67 0.147831
0.68 0.146433
0.69 0.143219
0.7 0.138466
0.71 0.132229
0.72 0.124587
0.73 0.11549
0.74 0.105196
0.75 0.0938852
0.76 0.0817054
0.77 0.068764
0.78 0.0552626
0.79 0.0414113
0.8 0.0273669
0.81 0.0132854
0.82 -0.000661338
0.83 -0.0143473
0.84 -0.0276616
0.85 -0.0405048
0.86 -0.0527095
0.87 -0.0642953
0.88 -0.0752245
0.89 -0.0854757
0.9 -0.0949566
0.91 -0.103746
0.92 -0.11189
0.93 -0.119425
0.94 -0.126345
0.95 -0.132719
0.96 -0.138639
0.97 -0.144154
0.98 -0.149301
0.99 -0.154114
1 -0.15867
1.01 -0.163003
1.02 -0.167136
1.03 -0.171065
1.04 -0.174829
1.05 -0.178431
1.06 -0.181869
1.07 -0.185114
1.08 -0.188173
1.09 -0.191043
1.1 -0.193715
1.11 -0.196167
1.12 -0.198402
1.13 -0.200442
1.14 -0.202303
1.15 -0.204
1.16 -0.205563
1.17 -0.207049
1.18 -0.208507
1.19 -0.20999
1.2 -0.211575
1.21 -0.213316
1.22 -0.215271
1.23 -0.217491
1.24 -0.22007
1.25 -0.223013
1.26 -0.226329
1.27 -0.230019
1.28 -0.234094
1.29 -0.238495
1.3 -0.243129
1.31 -0.247901
1.32 -0.252689
1.33 -0.257317
1.34 -0.261616
1.35 -0.265399
1.36 -0.268455
1.37 -0.270406
1.38 -0.271146
1.39 -0.270454
1.4 -0.268116
1.41 -0.263657
1.42 -0.257064
1.43 -0.248237
1.44 -0.237054
1.45 -0.223198
1.46 -0.206689
1.47 -0.18771
1.48 -0.166327
1.49 -0.142542
1.5 -0.116451
1.51 -0.088532
1.52 -0.0590672
1.53 -0.0283741
1.54 0.00322387
1.55 0.0351472
1.56 0.0669554
1.57 0.0981894
1.58 0.128175
1.59 0.156489
1.6 0.1827
1.61 0.206369
1.62 0.226769
1.63 0.243548
1.64 0.256593
1.65 0.265645
1.66 0.270266
1.67 0.270088
1.68 0.265514
1.69 0.256567
1.7 0.24328
1.71 0.225319
1.72 0.203547
1.73 0.178273
1.74 0.149857
1.75 0.118396
1.76 0.0847108
1.77 0.0493486
1.78 0.0128094
1.79 -0.0244125
1.8 -0.0616982
1.81 -0.0985232
1.82 -0.134423
1.83 -0.168865
1.84 -0.201304
1.85 -0.231559
1.86 -0.25935
1.87 -0.284401
1.88 -0.306164
1.89 -0.32494
1.9 -0.340692
1.91 -0.35344
1.92 -0.362864
1.93 -0.369439
1.94 -0.373399
1.95 -0.374938
1.96 -0.374088
1.97 -0.371207
1.98 -0.366678
1.99 -0.360745
2 -0.353591
2.01 -0.345436
2.02 -0.336586
2.03 -0.327206
2.04 -0.317429
2.05 -0.307331
2.06 -0.297021
2.07 -0.286519
2.08 -0.275814
2.09 -0.264822
2.1 -0.253488
2.11 -0.241717
2.12 -0.229396
2.13 -0.216321
2.14 -0.202367
2.15 -0.187454
2.16 -0.171469
2.17 -0.154243
2.18 -0.135645
2.19 -0.115761
2.2 -0.0945894
2.21 -0.0721426
2.22 -0.0483715
2.23 -0.0235768
2.24 0.00207625
2.25 0.028385
2.26 0.0551329
2.27 0.0819581
2.28 0.108551
2.29 0.134591
2.3 0.159619
2.31 0.183272
2.32 0.20527
2.33 0.22529
2.34 0.242866
2.35 0.257571
2.36 0.269401
2.37 0.278157
2.38 0.283611
2.39 0.285256
2.4 0.283504
2.41 0.278368
2.42 0.269915
2.43 0.25783
2.44 0.24271
2.45 0.224844
2.46 0.204501
2.47 0.181802
2.48 0.157245
2.49 0.131319
2.5 0.104405
2.51 0.0768802
2.52 0.0491982
2.53 0.021785
2.54 -0.00500095
2.55 -0.0307944
2.56 -0.0550978
2.57 -0.0777963
2.58 -0.0986713
2.59 -0.117547
2.6 -0.133977
2.61 -0.148148
2.62 -0.160075
2.63 -0.169784
2.64 -0.177131
2.65 -0.182357
2.66 -0.185738
2.67 -0.187464
2.68 -0.187673
2.69 -0.18661
2.7 -0.184659
2.71 -0.18208
2.72 -0.179128
2.73 -0.176083
2.74 -0.173222
2.75 -0.170761
2.76 -0.168895
2.77 -0.16792
2.78 -0.167883
2.79 -0.168862
2.8 -0.170916
2.81 -0.174176
2.82 -0.178561
2.83 -0.183949
2.84 -0.190244
2.85 -0.197363
2.86 -0.205135
2.87 -0.213308
2.88 -0.22168
2.89 -0.230033
2.9 -0.238081
2.91 -0.245607
2.92 -0.252391
2.93 -0.25822
2.94 -0.262696
2.95 -0.265773
2.96 -0.267311
2.97 -0.267184
2.98 -0.265093
2.99 -0.261059
3 -0.255151
3.01 -0.247374
3.02 -0.23765
3.03 -0.226024
3.04 -0.212778
3.05 -0.198049
3.06 -0.181974
3.07 -0.164653
3.08 -0.146467
3.09 -0.127637
3.1 -0.108395
3.11 -0.0889838
3.12 -0.0696909
3.13 -0.0507442
3.14 -0.0323589
3.15 -0.0148382
3.16 0.00165343
3.17 0.0170068
3.18 0.0310973
3.19 0.0437304
3.2 0.0548005
3.21 0.064409
3.22 0.0725631
3.23 0.0792614
3.24 0.084451
3.25 0.0884214
3.26 0.091303
3.27 0.0932484
3.28 0.094343
3.29 0.0949065
3.3 0.0951475
3.31 0.0952722
3.32 0.0955214
3.33 0.0961269
3.34 0.097275
3.35 0.0991456
3.36 0.101975
3.37 0.105949
3.38 0.111097
3.39 0.117504
3.4 0.125266
3.41 0.134544
3.42 0.145153
3.43 0.15705
3.44 0.170164
3.45 0.184547
3.46 0.199895
3.47 0.216045
3.48 0.232822
3.49 0.250067
3.5 0.267516
3.51 0.284939
3.52 0.302126
3.53 0.318818
3.54 0.33476
3.55 0.349803
3.56 0.36377
3.57 0.376452
3.58 0.387553
3.59 0.397122
3.6 0.405068
3.61 0.411325
3.62 0.415581
3.63 0.418074
3.64 0.418831
3.65 0.417886
3.66 0.415117
3.67 0.410723
3.68 0.404875
3.69 0.397681
3.7 0.389176
3.71 0.379495
3.72 0.368868
3.73 0.357425
3.74 0.34527
3.75 0.332492
3.76 0.319285
3.77 0.305749
3.78 0.291975
3.79 0.278028
3.8 0.264005
3.81 0.249957
3.82 0.235926
3.83 0.221947
3.84 0.208038
3.85 0.194206
3.86 0.180454
3.87 0.166785
3.88 0.153196
3.89 0.139675
3.9 0.12622
3.91 0.112833
3.92 0.0995306
3.93 0.086318
3.94 0.0732177
3.95 0.0602605
3.96 0.0475217
3.97 0.0350296
3.98 0.0228427
3.99 0.0110277
4 -0.00028168
4.01 -0.0110256
4.02 -0.0211418
4.03 -0.0305468
4.04 -0.0390905
4.05 -0.0466711
4.06 -0.0532831
4.07 -0.0588606
4.08 -0.0633047
4.09 -0.0664649
4.1 -0.0684481
4.11 -0.0692388
4.12 -0.0688361
4.13 -0.0670735
4.14 -0.0641699
4.15 -0.0601788
4.16 -0.0551644
4.17 -0.0491047
4.18 -0.0421783
4.19 -0.0345295
4.2 -0.0262719
4.21 -0.0174981
4.22 -0.00835765
4.23 0.000983325
4.24 0.0103973
4.25 0.0197519
4.26 0.0288915
4.27 0.0377148
4.28 0.046119
4.29 0.0540117
4.3 0.0612072
4.31 0.067726
4.32 0.073519
4.33 0.0785501
4.34 0.0827027
4.35 0.0860319
4.36 0.0885798
4.37 0.0903687
4.38 0.0913785
4.39 0.0916638
4.4 0.0913388
4.41 0.0904668
4.42 0.0891013
4.43 0.087297
4.44 0.0851859
4.45 0.0828454
4.46 0.0803521
4.47 0.0777795
4.48 0.0752185
4.49 0.0727345
4.5 0.070387
4.51 0.0682584
4.52 0.0663854
4.53 0.0647969
4.54 0.0635222
4.55 0.0626115
4.56 0.0620794
4.57 0.0619034
4.58 0.0620808
4.59 0.062616
4.6 0.0635154
4.61 0.0647157
4.62 0.0661894
4.63 0.0679051
4.64 0.0698534
4.65 0.0719579
4.66 0.0741766
4.67 0.0764654
4.68 0.0787761
4.69 0.0810527
4.7 0.0832473
4.71 0.0853125
4.72 0.0871825
4.73 0.0888022
4.74 0.0901404
4.75 0.0911529
4.76 0.0917789
4.77 0.0919396
4.78 0.0916408
4.79 0.0908464
4.8 0.0895207
4.81 0.0875424
4.82 0.0849693
4.83 0.0817783
4.84 0.07795
4.85 0.0733867
4.86 0.0681337
4.87 0.0622098
4.88 0.0556148
4.89 0.0482981
4.9 0.0402778
4.91 0.0316213
4.92 0.0223504
4.93 0.0124676
4.94 0.00197227
4.95 -0.00902989
4.96 -0.0204956
4.97 -0.0323791
4.98 -0.0446747
4.99 -0.0572639
5 -0.0700875
5.01 -0.083084
5.02 -0.0961953
5.03 -0.109337
5.04 -0.12244
5.05 -0.135438
5.06 -0.148247
5.07 -0.160793
5.08 -0.173027
5.09 -0.184893
5.1 -0.19631
5.11 -0.207187
5.12 -0.217526
5.13 -0.227285
5.14 -0.23642
5.15 -0.244798
5.16 -0.252488
5.17 -0.259468
5.18 -0.26572
5.19 -0.271139
5.2 -0.275785
5.21 -0.279682
5.22 -0.282834
5.23 -0.285183
5.24 -0.286755
5.25 -0.287619
5.26 -0.287794
5.27 -0.287272
5.28 -0.28604
5.29 -0.284199
5.3 -0.281778
5.31 -0.278802
5.32 -0.275233
5.33 -0.271184
5.34 -0.266687
5.35 -0.261772
5.36 -0.256427
5.37 -0.250722
5.38 -0.2447
5.39 -0.238387
5.4 -0.23179
5.41 -0.224944
5.42 -0.217891
5.43 -0.210652
5.44 -0.203241
5.45 -0.19567
5.46 -0.187975
5.47 -0.18017
5.48 -0.172269
5.49 -0.164274
5.5 -0.15621
5.51 -0.148087
5.52 -0.139916
5.53 -0.131699
5.54 -0.123451
5.55 -0.115182
5.56 -0.106897
5.57 -0.0986074
5.58 -0.090322
5.59 -0.0820504
5.6 -0.0738027
5.61 -0.0655917
5.62 -0.057434
5.63 -0.0493386
5.64 -0.0413194
5.65 -0.0333927
5.66 -0.0255923
5.67 -0.0179215
5.68 -0.0103989
5.69 -0.00304407
5.7 0.00409542
5.71 0.0110148
5.72 0.017698
5.73 0.0241233
5.74 0.0302414
5.75 0.0360332
5.76 0.0414972
5.77 0.0466133
5.78 0.0513422
5.79 0.0556415
5.8 0.0595356
5.81 0.0630104
5.82 0.0660487
5.83 0.0685802
5.84 0.0706626
5.85 0.0722926
5.86 0.0734697
5.87 0.0741372
5.88 0.07435
5.89 0.0741301
5.9 0.0734909
5.91 0.072413
5.92 0.0709312
5.93 0.069096
5.94 0.0669341
5.95 0.064461
5.96 0.0617012
5.97 0.0587207
5.98 0.0555566
5.99 0.052246
6 0.0488216
6.01 0.0453438
6.02 0.0418537
6.03 0.0383919
6.04 0.0350132
6.05 0.0317543
6.06 0.0286498
6.07 0.0257344
6.08 0.0230635
6.09 0.0206641
6.1 0.0185453
6.11 0.0167274
6.12 0.0152443
6.13 0.0141254
6.14 0.0133424
6.15 0.0128961
6.16 0.0127875
6.17 0.0130478
6.18 0.0136146
6.19 0.0144692
6.2 0.0155891
6.21 0.0169766
6.22 0.0185713
6.23 0.0203348
6.24 0.0222326
6.25 0.0242347
6.26 0.0262942
6.27 0.0283686
6.28 0.0304214
6.29 0.0324123
6.3 0.0342975
6.31 0.036053
6.32 0.037651
6.33 0.0390632
6.34 0.0402394
6.35 0.0411901
6.36 0.0419026
6.37 0.042368
6.38 0.0425464
6.39 0.0424664
6.4 0.0421372
6.41 0.0415657
6.42 0.0407404
6.43 0.0396851
6.44 0.0384298
6.45 0.0369921
6.46 0.0353828
6.47 0.0336194
6.48 0.0317392
6.49 0.0297631
6.5 0.0277111
6.51 0.0256005
6.52 0.0234607
6.53 0.0213107
6.54 0.0191684
6.55 0.0170564
6.56 0.0149897
6.57 0.0129824
6.58 0.0110483
6.59 0.00921052
6.6 0.00748046
6.61 0.00586483
6.62 0.00437555
6.63 0.00303358
6.64 0.0018595
6.65 0.000851594
6.66 2.27133e-05
6.67 -0.000609722
6.68 -0.00100495
6.69 -0.00117624
6.7 -0.00110921
6.71 -0.000789446
6.72 -0.000163168
6.73 0.000752953
6.74 0.00196656
6.75 0.00348948
6.76 0.00536533
6.77 0.00759062
6.78 0.0101522
6.79 0.0130535
6.8 0.0163161
6.81 0.0199493
6.82 0.0239133
6.83 0.0281984
6.84 0.0327981
6.85 0.037727
6.86 0.0429227
6.87 0.0483618
6.88 0.0540183
6.89 0.0598865
6.9 0.0659078
6.91 0.0720462
6.92 0.078268
6.93 0.0845398
6.94 0.0908185
6.95 0.097067
6.96 0.103252
6.97 0.109331
6.98 0.115264
6.99 0.121031
7 0.126604
7.01 0.131954
7.02 0.137025
7.03 0.141829
7.04 0.146346
7.05 0.150562
7.06 0.154414
7.07 0.15793
7.08 0.161102
7.09 0.163922
7.1 0.166343
7.11 0.168372
7.12 0.170022
7.13 0.171287
7.14 0.172132
7.15 0.172538
7.16 0.172534
7.17 0.172115
7.18 0.171261
7.19 0.16992
7.2 0.168141
7.21 0.165922
7.22 0.163257
7.23 0.160082
7.24 0.156454
7.25 0.152384
7.26 0.147878
7.27 0.142901
7.28 0.13749
7.29 0.131685
7.3 0.125509
7.31 0.118964
7.32 0.112076
7.33 0.104912
7.34 0.0975071
7.35 0.0898988
7.36 0.0821205
7.37 0.0742438
7.38 0.0663167
7.39 0.0583883
7.4 0.0505231
7.41 0.0427713
7.42 0.0351814
7.43 0.0278017
7.44 0.0207112
7.45 0.0139475
7.46 0.00753722
7.47 0.00151801
7.48 -0.00404508
7.49 -0.00910466
7.5 -0.0136754
7.51 -0.0177357
7.52 -0.0212526
7.53 -0.0241537
7.54 -0.0265002
7.55 -0.0282862
7.56 -0.0295089
7.57 -0.0300852
7.58 -0.0300955
7.59 -0.0295523
7.6 -0.0284632
7.61 -0.0267807
7.62 -0.0245489
7.63 -0.0218084
7.64 -0.0185739
7.65 -0.0148298
7.66 -0.0105869
7.67 -0.00590835
7.68 -0.000815469
7.69 0.00467895
7.7 0.0105816
7.71 0.0168132
7.72 0.0233424
7.73 0.0301346
7.74 0.0371802
7.75 0.0444011
7.76 0.0517502
7.77 0.0591795
7.78 0.0666347
7.79 0.0740505
7.8 0.0813685
7.81 0.0885295
7.82 0.0954527
7.83 0.102058
7.84 0.108306
7.85 0.114133
7.86 0.119464
7.87 0.124179
7.88 0.128288
7.89 0.131742
7.9 0.134496
7.91 0.136395
7.92 0.137508
7.93 0.137818
7.94 0.137307
7.95 0.135874
7.96 0.133568
7.97 0.130438
7.98 0.126499
7.99 0.121717
8 0.116116
8.01 0.109799
8.02 0.102808
8.03 0.0951701
8.04 0.0868873
8.05 0.078091
8.06 0.0688356
8.07 0.0591762
8.08 0.0491232
8.09 0.0387885
8.1 0.0282274
8.11 0.017491
8.12 0.00661866
8.13 -0.00432848
8.14 -0.0153033
8.15 -0.0262676
8.16 -0.0371801
8.17 -0.0480022
8.18 -0.0587104
8.19 -0.0692795
8.2 -0.0796803
8.21 -0.0898717
8.22 -0.0998561
8.23 -0.109616
8.24 -0.119136
8.25 -0.128356
8.26 -0.137299
8.27 -0.145949
8.28 -0.154292
8.29 -0.162274
8.3 -0.169898
8.31 -0.177164
8.32 -0.184057
8.33 -0.190533
8.34 -0.196571
8.35 -0.202193
8.36 -0.207389
8.37 -0.212134
8.38 -0.216383
8.39 -0.220187
8.4 -0.223548
8.41 -0.226469
8.42 -0.228891
8.43 -0.23089
8.44 -0.232485
8.45 -0.23369
8.46 -0.234485
8.47 -0.234922
8.48 -0.235041
8.49 -0.234868
8.5 -0.234408
8.51 -0.23369
8.52 -0.232761
8.53 -0.231643
8.54 -0.230351
8.55 -0.228893
8.56 -0.227303
8.57 -0.225594
8.58 -0.223771
8.59 -0.221822
8.6 -0.219763
8.61 -0.217591
8.62 -0.215297
8.63 -0.212855
8.64 -0.210261
8.65 -0.207506
8.66 -0.204575
8.67 -0.201437
8.68 -0.198074
8.69 -0.19449
8.7 -0.190674
8.71 -0.186609
8.72 -0.18227
8.73 -0.177687
8.74 -0.172864
8.75 -0.16781
8.76 -0.162505
8.77 -0.157003
8.78 -0.151327
8.79 -0.1455
8.8 -0.13954
8.81 -0.13349
8.82 -0.127387
8.83 -0.121261
8.84 -0.115146
8.85 -0.109079
8.86 -0.103084
8.87 -0.097185
8.88 -0.0914073
8.89 -0.0857794
8.9 -0.0802961
8.91 -0.0749622
8.92 -0.0697773
8.93 -0.0647572
8.94 -0.0598665
8.95 -0.0550892
8.96 -0.0504055
8.97 -0.0457978
8.98 -0.0412305
8.99 -0.0366738
9 -0.0320999
9.01 -0.0274757
9.02 -0.0227702
9.03 -0.0179647
9.04 -0.0130394
9.05 -0.00797243
9.06 -0.00273997
9.07 0.00264611
9.08 0.00818519
9.09 0.0138716
9.1 0.0197125
9.11 0.0256669
9.12 0.0317121
9.13 0.0378213
9.14 0.0439639
9.15 0.0500986
9.16 0.0561887
9.17 0.062198
9.18 0.0680774
9.19 0.0737855
9.2 0.0792993
9.21 0.0845886
9.22 0.0896151
9.23 0.0943326
9.24 0.0987542
9.25 0.102868
9.26 0.106666
9.27 0.110096
9.28 0.113213
9.29 0.116023
9.3 0.118537
9.31 0.120738
9.32 0.122668
9.33 0.124358
9.34 0.125826
9.35 0.127076
9.36 0.128132
9.37 0.129027
9.38 0.129773
9.39 0.130379
9.4 0.130845
9.41 0.131191
9.42 0.131419
9.43 0.131527
9.44 0.13149
9.45 0.131319
9.46 0.131003
9.47 0.13053
9.48 0.129865
9.49 0.129008
9.5 0.127952
9.51 0.126685
9.52 0.125178
9.53 0.123426
9.54 0.121441
9.55 0.119225
9.56 0.116771
9.57 0.114074
9.58 0.111173
9.59 0.108085
9.6 0.104831
9.61 0.101417
9.62 0.0978952
9.63 0.0942957
9.64 0.0906493
9.65 0.0869901
9.66 0.0833558
9.67 0.0797776
9.68 0.0762849
9.69 0.0729168
9.7 0.0697004
9.71 0.0666471
9.72 0.0637737
9.73 0.0611026
9.74 0.0586567
9.75 0.0564178
9.76 0.0543863
9.77 0.0525606
9.78 0.050962
9.79 0.0495505
9.8 0.0483153
9.81 0.0472447
9.82 0.0463443
9.83 0.0455858
9.84 0.0449533
9.85 0.0444376
9.86 0.0440405
9.87 0.0437545
9.88 0.0435704
9.89 0.0434896
9.9 0.0435217
9.91 0.0436825
9.92 0.0439699
9.93 0.0443961
9.94 0.0449763
9.95 0.0457511
9.96 0.0467119
9.97 0.0478732
9.98 0.0492481
9.99 0.0508783
10 0.0527507
10.01 0.0548627
10.02 0.0572148
10.03 0.0598237
10.04 0.0626734
10.05 0.0657327
10.06 0.0689817
10.07 0.0724027
10.08 0.0759683
10.09 0.0796265
10.1 0.0833392
10.11 0.0870648
10.12 0.0907487
10.13 0.0943452
10.14 0.0978089
10.15 0.101095
10.16 0.104124
10.17 0.106871
10.18 0.109306
10.19 0.111393
10.2 0.113064
10.21 0.1143
10.22 0.115108
10.23 0.115473
10.24 0.115364
10.25 0.114752
10.26 0.11369
10.27 0.112187
10.28 0.110251
10.29 0.107846
10.3 0.105055
10.31 0.101904
10.32 0.0984171
10.33 0.0945857
10.34 0.0904746
10.35 0.0861207
10.36 0.0815523
10.37 0.0767821
10.38 0.0718463
10.39 0.0667815
10.4 0.0616106
10.41 0.0563511
10.42 0.0510222
10.43 0.0456494
10.44 0.0402477
10.45 0.0348311
10.46 0.0294137
10.47 0.0240081
10.48 0.0186247
10.49 0.0132734
10.5 0.00797054
10.51 0.00272225
10.52 -0.00246317
10.53 -0.00757619
10.54 -0.0125983
10.55 -0.0175202
10.56 -0.0223374
10.57 -0.0270397
10.58 -0.0316098
10.59 -0.0360299
10.6 -0.0403044
10.61 -0.0444255
10.62 -0.0483837
10.63 -0.0521512
10.64 -0.0557477
10.65 -0.0591712
10.66 -0.0624213
10.67 -0.0654764
10.68 -0.0683598
10.69 -0.071081
10.7 -0.0736467
10.71 -0.0760519
10.72 -0.0783125
10.73 -0.080448
10.74 -0.0824686
10.75 -0.0843797
10.76 -0.0861886
10.77 -0.0879149
10.78 -0.0895662
10.79 -0.0911478
10.8 -0.0926564
10.81 -0.0941036
10.82 -0.095489
10.83 -0.09681
10.84 -0.0980515
10.85 -0.0992133
10.86 -0.100288
10.87 -0.101264
10.88 -0.102117
10.89 -0.102837
10.9 -0.103416
10.91 -0.103841
10.92 -0.10409
10.93 -0.10414
10.94 -0.103999
10.95 -0.10366
10.96 -0.103114
10.97 -0.102334
10.98 -0.101349
10.99 -0.100165
11 -0.0987895
11.01 -0.0972094
11.02 -0.0954627
11.03 -0.0935704
11.04 -0.091552
11.05 -0.0894209
11.06 -0.0872086
11.07 -0.0849451
11.08 -0.0826549
11.09 -0.0803638
11.1 -0.0781003
11.11 -0.0758861
11.12 -0.0737413
11.13 -0.0716859
11.14 -0.06975
11.15 -0.0679325
11.16 -0.0662423
11.17 -0.0646854
11.18 -0.0632839
11.19 -0.0620208
11.2 -0.0608899
11.21 -0.0598855
11.22 -0.0590107
11.23 -0.0582489
11.24 -0.057582
11.25 -0.056998
11.26 -0.0564881
11.27 -0.0560399
11.28 -0.0556351
11.29 -0.0552629
11.3 -0.054914
11.31 -0.0545808
11.32 -0.0542542
11.33 -0.0539297
11.34 -0.0536045
11.35 -0.053277
11.36 -0.0529482
11.37 -0.05262
11.38 -0.0522957
11.39 -0.0519804
11.4 -0.0516791
11.41 -0.051396
11.42 -0.0511358
11.43 -0.0509049
11.44 -0.0507083
11.45 -0.050546
11.46 -0.0504194
11.47 -0.0503296
11.48 -0.0502794
11.49 -0.0502612
11.5 -0.0502713
11.51 -0.0503049
11.52 -0.0503579
11.53 -0.0504204
11.54 -0.0504849
11.55 -0.0505439
11.56 -0.0505878
11.57 -0.0506085
11.58 -0.0506002
11.59 -0.0505567
11.6 -0.0504698
11.61 -0.0503331
11.62 -0.0501478
11.63 -0.049912
11.64 -0.0496236
11.65 -0.0492773
11.66 -0.0488816
11.67 -0.0484386
11.68 -0.0479509
11.69 -0.047416
11.7 -0.0468431
11.71 -0.0462358
11.72 -0.045597
11.73 -0.0449263
11.74 -0.044227
11.75 -0.0435015
11.76 -0.0427498
11.77 -0.0419691
11.78 -0.0411564
11.79 -0.0403116
11.8 -0.0394315
11.81 -0.0385111
11.82 -0.0375411
11.83 -0.0365229
11.84 -0.0354526
11.85 -0.034327
11.86 -0.0331348
11.87 -0.0318819
11.88 -0.030569
11.89 -0.0291972
11.9 -0.0277633
11.91 -0.0262754
11.92 -0.0247421
11.93 -0.0231705
11.94 -0.0215676
11.95 -0.019944
11.96 -0.0183127
11.97 -0.0166841
11.98 -0.0150698
11.99 -0.0134842
12 -0.011935
12.01 -0.0104305
12.02 -0.00897799
12.03 -0.00759227
12.04 -0.00626921
12.05 -0.00500918
12.06 -0.00381114
12.07 -0.00267765
