[DEFAULT]

version = diffpy.pdfgetx-2.2.1

# input and output specifications
dataformat = twotheta
inputfile = Synthetic_CSH_CSH_pdf_ramp_700_06_normalized.chi
backgroundfiles = quartz_030degC_normalized.chi
outputtype = gr

# PDF calculation setup
mode = xray
wavelength = 0.2113
twothetazero = 0
composition = CaO SiO2
bgscales = 1.0
rpoly = 0.9
qmaxinst = 23.7031
qmin = 0.5
qmax = 20
rmin = 0
rmax = 60
rstep = 0.01

# End of config --------------------------------------------------------------

#### start data
#S 1
#L r(Å)  G(Å$^{-2}$)
0 0
0.01 -0.00323202
0.02 -0.00634235
0.03 -0.00922802
0.04 -0.0117929
0.05 -0.0138924
0.06 -0.0154772
0.07 -0.0165107
0.08 -0.0169563
0.09 -0.016747
0.1 -0.0158886
0.11 -0.0144559
0.12 -0.0124936
0.13 -0.0100478
0.14 -0.00718171
0.15 -0.00404381
0.16 -0.00073832
0.17 0.00262365
0.18 0.00590003
0.19 0.00897281
0.2 0.0117326
0.21 0.0140776
0.22 0.0158456
0.23 0.0169937
0.24 0.017487
0.25 0.01729
0.26 0.0163298
0.27 0.0146216
0.28 0.0122558
0.29 0.00928886
0.3 0.00577942
0.31 0.00181102
0.32 -0.00244024
0.33 -0.00684471
0.34 -0.0112625
0.35 -0.0155033
0.36 -0.0194221
0.37 -0.0228724
0.38 -0.0257133
0.39 -0.0277069
0.4 -0.0287845
0.41 -0.0288779
0.42 -0.0279106
0.43 -0.0257313
0.44 -0.0223161
0.45 -0.0177527
0.46 -0.0120678
0.47 -0.00526939
0.48 0.0026203
0.49 0.0113736
0.5 0.0208654
0.51 0.0309555
0.52 0.0415268
0.53 0.0523224
0.54 0.0631657
0.55 0.0738774
0.56 0.0842183
0.57 0.0940178
0.58 0.103126
0.59 0.111393
0.6 0.11859
0.61 0.124591
0.62 0.129379
0.63 0.132886
0.64 0.134999
0.65 0.1356
0.66 0.134845
0.67 0.132758
0.68 0.129374
0.69 0.124584
0.7 0.118666
0.71 0.111713
0.72 0.103828
0.73 0.0950308
0.74 0.0855305
0.75 0.0754696
0.76 0.0649617
0.77 0.054097
0.78 0.0430028
0.79 0.0317951
0.8 0.0205572
0.81 0.00936728
0.82 -0.00169645
0.83 -0.0125936
0.84 -0.0232879
0.85 -0.033751
0.86 -0.0439284
0.87 -0.0538492
0.88 -0.0635123
0.89 -0.0729212
0.9 -0.0820516
0.91 -0.090936
0.92 -0.0995892
0.93 -0.108016
0.94 -0.116198
0.95 -0.124136
0.96 -0.131836
0.97 -0.139283
0.98 -0.146445
0.99 -0.153274
1 -0.159771
1.01 -0.165904
1.02 -0.171635
1.03 -0.176865
1.04 -0.181623
1.05 -0.185882
1.06 -0.189619
1.07 -0.192748
1.08 -0.195316
1.09 -0.197346
1.1 -0.198854
1.11 -0.199828
1.12 -0.200327
1.13 -0.200441
1.14 -0.200236
1.15 -0.19978
1.16 -0.199163
1.17 -0.198503
1.18 -0.197894
1.19 -0.197436
1.2 -0.19727
1.21 -0.197457
1.22 -0.198076
1.23 -0.199192
1.24 -0.200933
1.25 -0.203277
1.26 -0.206217
1.27 -0.209735
1.28 -0.213839
1.29 -0.218435
1.3 -0.223391
1.31 -0.228587
1.32 -0.233876
1.33 -0.239059
1.34 -0.243939
1.35 -0.248316
1.36 -0.251967
1.37 -0.254509
1.38 -0.255838
1.39 -0.255741
1.4 -0.254014
1.41 -0.250204
1.42 -0.244316
1.43 -0.236271
1.44 -0.225965
1.45 -0.213116
1.46 -0.19776
1.47 -0.180084
1.48 -0.160161
1.49 -0.138007
1.5 -0.113719
1.51 -0.0877427
1.52 -0.0603409
1.53 -0.0318043
1.54 -0.00242355
1.55 0.0272761
1.56 0.0569001
1.57 0.086039
1.58 0.114096
1.59 0.14069
1.6 0.165436
1.61 0.187942
1.62 0.207555
1.63 0.223953
1.64 0.237023
1.65 0.246518
1.66 0.252028
1.67 0.253194
1.68 0.250353
1.69 0.243495
1.7 0.232613
1.71 0.217347
1.72 0.198456
1.73 0.17618
1.74 0.150809
1.75 0.122353
1.76 0.0915544
1.77 0.058892
1.78 0.0248021
1.79 -0.0103124
1.8 -0.0458776
1.81 -0.081383
1.82 -0.116387
1.83 -0.15039
1.84 -0.182865
1.85 -0.213564
1.86 -0.242176
1.87 -0.268389
1.88 -0.291626
1.89 -0.31208
1.9 -0.329647
1.91 -0.344273
1.92 -0.355555
1.93 -0.363887
1.94 -0.369437
1.95 -0.37234
1.96 -0.372541
1.97 -0.370365
1.98 -0.366183
1.99 -0.360227
2 -0.35266
2.01 -0.343705
2.02 -0.333736
2.03 -0.322965
2.04 -0.311572
2.05 -0.299695
2.06 -0.287542
2.07 -0.275213
2.08 -0.262779
2.09 -0.250268
2.1 -0.237693
2.11 -0.225026
2.12 -0.212215
2.13 -0.199155
2.14 -0.185748
2.15 -0.171905
2.16 -0.157522
2.17 -0.142451
2.18 -0.12655
2.19 -0.10981
2.2 -0.0921753
2.21 -0.0735954
2.22 -0.0539612
2.23 -0.0334442
2.24 -0.0121198
2.25 0.00990101
2.26 0.0325236
2.27 0.055468
2.28 0.0785003
2.29 0.101369
2.3 0.123724
2.31 0.145235
2.32 0.165621
2.33 0.184571
2.34 0.201648
2.35 0.216421
2.36 0.228796
2.37 0.238525
2.38 0.245327
2.39 0.248647
2.4 0.248773
2.41 0.245639
2.42 0.239231
2.43 0.229141
2.44 0.215891
2.45 0.199707
2.46 0.180807
2.47 0.159242
2.48 0.135496
2.49 0.11007
2.5 0.083356
2.51 0.0557421
2.52 0.0277284
2.53 -0.000172302
2.54 -0.0275274
2.55 -0.0538849
2.56 -0.0786263
2.57 -0.10154
2.58 -0.122305
2.59 -0.140645
2.6 -0.155924
2.61 -0.168296
2.62 -0.177706
2.63 -0.184113
2.64 -0.187232
2.65 -0.187305
2.66 -0.184647
2.67 -0.179456
2.68 -0.171845
2.69 -0.162093
2.7 -0.15074
2.71 -0.138133
2.72 -0.124622
2.73 -0.110585
2.74 -0.0964962
2.75 -0.0827148
2.76 -0.0695804
2.77 -0.0575894
2.78 -0.0469298
2.79 -0.0378204
2.8 -0.0304539
2.81 -0.0251875
2.82 -0.0220324
2.83 -0.0209181
2.84 -0.0218312
2.85 -0.0248332
2.86 -0.0298443
2.87 -0.0365207
2.88 -0.044668
2.89 -0.0540863
2.9 -0.0645862
2.91 -0.0757341
2.92 -0.0872449
2.93 -0.0988287
2.94 -0.110124
2.95 -0.120847
2.96 -0.130738
2.97 -0.139557
2.98 -0.146928
2.99 -0.152706
3 -0.156818
3.01 -0.159152
3.02 -0.159505
3.03 -0.157788
3.04 -0.154184
3.05 -0.148733
3.06 -0.141465
3.07 -0.13233
3.08 -0.121699
3.09 -0.10973
3.1 -0.0966008
3.11 -0.0823869
3.12 -0.067446
3.13 -0.0519938
3.14 -0.0362336
3.15 -0.0203732
3.16 -0.004639
3.17 0.0107922
3.18 0.0257627
3.19 0.0400826
3.2 0.0535962
3.21 0.0662694
3.22 0.0780329
3.23 0.0888105
3.24 0.0984753
3.25 0.107157
3.26 0.114875
3.27 0.121671
3.28 0.127477
3.29 0.132495
3.3 0.136815
3.31 0.140528
3.32 0.143683
3.33 0.146425
3.34 0.148877
3.35 0.151133
3.36 0.153282
3.37 0.155422
3.38 0.157631
3.39 0.159973
3.4 0.162502
3.41 0.165285
3.42 0.168319
3.43 0.171614
3.44 0.175166
3.45 0.178997
3.46 0.18304
3.47 0.187256
3.48 0.191598
3.49 0.196014
3.5 0.20043
3.51 0.204779
3.52 0.208992
3.53 0.212984
3.54 0.216669
3.55 0.220005
3.56 0.222931
3.57 0.225377
3.58 0.227238
3.59 0.228539
3.6 0.229251
3.61 0.229351
3.62 0.228735
3.63 0.227491
3.64 0.225635
3.65 0.223187
3.66 0.220113
3.67 0.216494
3.68 0.212401
3.69 0.207882
3.7 0.20297
3.71 0.19773
3.72 0.192253
3.73 0.186598
3.74 0.180822
3.75 0.174985
3.76 0.169151
3.77 0.163365
3.78 0.157667
3.79 0.152112
3.8 0.146708
3.81 0.141468
3.82 0.136397
3.83 0.131511
3.84 0.126784
3.85 0.122188
3.86 0.117694
3.87 0.113274
3.88 0.108881
3.89 0.10447
3.9 0.0999991
3.91 0.0954208
3.92 0.0906772
3.93 0.0857481
3.94 0.0806052
3.95 0.0752271
3.96 0.0695618
3.97 0.0636457
3.98 0.0574905
3.99 0.051118
4 0.0445455
4.01 0.0378405
4.02 0.0310701
4.03 0.0243035
4.04 0.0176319
4.05 0.0111612
4.06 0.00497644
4.07 -0.00082561
4.08 -0.00612517
4.09 -0.010758
4.1 -0.0146937
4.11 -0.0178461
4.12 -0.0201374
4.13 -0.0213457
4.14 -0.0215568
4.15 -0.0207386
4.16 -0.0188724
4.17 -0.0158357
4.18 -0.0117308
4.19 -0.00664377
4.2 -0.00063417
4.21 0.00627921
4.22 0.0139839
4.23 0.0222986
4.24 0.0310977
4.25 0.0402528
4.26 0.0496105
4.27 0.0589828
4.28 0.0682186
4.29 0.0771686
4.3 0.0855979
4.31 0.0934234
4.32 0.100523
4.33 0.106787
4.34 0.112001
4.35 0.116153
4.36 0.119232
4.37 0.121205
4.38 0.121975
4.39 0.121557
4.4 0.120075
4.41 0.117585
4.42 0.114125
4.43 0.109732
4.44 0.104618
4.45 0.0988986
4.46 0.0926924
4.47 0.0860866
4.48 0.0792788
4.49 0.0723922
4.5 0.0655443
4.51 0.0588759
4.52 0.0524882
4.53 0.0464583
4.54 0.0408557
4.55 0.0357775
4.56 0.0312658
4.57 0.0272981
4.58 0.0238747
4.59 0.0210013
4.6 0.0186789
4.61 0.016798
4.62 0.0153003
4.63 0.0141188
4.64 0.0132039
4.65 0.012428
4.66 0.0117087
4.67 0.0109639
4.68 0.0100917
4.69 0.00901562
4.7 0.00767415
4.71 0.00600962
4.72 0.00394015
4.73 0.00142494
4.74 -0.0015286
4.75 -0.00493106
4.76 -0.0088003
4.77 -0.0131529
4.78 -0.0179109
4.79 -0.0230401
4.8 -0.0284991
4.81 -0.0342743
4.82 -0.0402613
4.83 -0.0464032
4.84 -0.0526417
4.85 -0.0589167
4.86 -0.0651612
4.87 -0.0713228
4.88 -0.0773552
4.89 -0.0832002
4.9 -0.0888191
4.91 -0.0942003
4.92 -0.0993256
4.93 -0.104172
4.94 -0.108714
4.95 -0.112988
4.96 -0.117002
4.97 -0.120768
4.98 -0.124269
4.99 -0.127562
5 -0.130666
5.01 -0.1336
5.02 -0.136365
5.03 -0.138991
5.04 -0.141495
5.05 -0.143884
5.06 -0.14615
5.07 -0.14829
5.08 -0.150306
5.09 -0.152184
5.1 -0.153897
5.11 -0.155409
5.12 -0.156713
5.13 -0.157782
5.14 -0.158585
5.15 -0.159047
5.16 -0.159183
5.17 -0.158968
5.18 -0.158381
5.19 -0.157352
5.2 -0.155906
5.21 -0.154049
5.22 -0.151783
5.23 -0.14908
5.24 -0.145964
5.25 -0.142487
5.26 -0.138677
5.27 -0.134556
5.28 -0.130153
5.29 -0.125547
5.3 -0.120786
5.31 -0.11592
5.32 -0.111002
5.33 -0.106098
5.34 -0.101258
5.35 -0.0965332
5.36 -0.0919949
5.37 -0.0876756
5.38 -0.0836064
5.39 -0.0798183
5.4 -0.0763655
5.41 -0.0732641
5.42 -0.0705025
5.43 -0.0680848
5.44 -0.0660251
5.45 -0.0643335
5.46 -0.0629563
5.47 -0.061873
5.48 -0.0610604
5.49 -0.0605182
5.5 -0.060174
5.51 -0.0599924
5.52 -0.0599367
5.53 -0.059976
5.54 -0.0600584
5.55 -0.0601448
5.56 -0.0602
5.57 -0.0601819
5.58 -0.0600554
5.59 -0.0597982
5.6 -0.0593864
5.61 -0.0587895
5.62 -0.0579767
5.63 -0.0569555
5.64 -0.0557174
5.65 -0.0542553
5.66 -0.0525374
5.67 -0.0506002
5.68 -0.0484504
5.69 -0.0460975
5.7 -0.0435307
5.71 -0.0407874
5.72 -0.0378909
5.73 -0.034861
5.74 -0.0317114
5.75 -0.0284721
5.76 -0.0251748
5.77 -0.0218444
5.78 -0.0185073
5.79 -0.0151945
5.8 -0.011931
5.81 -0.00874085
5.82 -0.00564857
5.83 -0.00269502
5.84 0.000115719
5.85 0.00276658
5.86 0.00524291
5.87 0.00750672
5.88 0.00956809
5.89 0.0114273
5.9 0.0130828
5.91 0.0145181
5.92 0.0157453
5.93 0.0167876
5.94 0.0176578
5.95 0.0183643
5.96 0.0189223
5.97 0.0193697
5.98 0.0197298
5.99 0.0200271
6 0.0202868
6.01 0.020543
6.02 0.0208215
6.03 0.021147
6.04 0.0215552
6.05 0.0220622
6.06 0.0226839
6.07 0.0234352
6.08 0.0243418
6.09 0.0254079
6.1 0.0266271
6.11 0.0279982
6.12 0.0295239
6.13 0.0312003
6.14 0.0329992
6.15 0.0349047
6.16 0.0368994
6.17 0.0389681
6.18 0.0410769
6.19 0.0432032
6.2 0.0453244
6.21 0.0474122
6.22 0.0494468
6.23 0.0514108
6.24 0.0532889
6.25 0.0550582
6.26 0.0567116
6.27 0.058251
6.28 0.0596753
6.29 0.060981
6.3 0.0621709
6.31 0.0632667
6.32 0.0642811
6.33 0.0652285
6.34 0.0661223
6.35 0.0669899
6.36 0.0678496
6.37 0.0687197
6.38 0.0696239
6.39 0.0705766
6.4 0.0715904
6.41 0.0726759
6.42 0.0738491
6.43 0.0751119
6.44 0.0764594
6.45 0.0778884
6.46 0.0793963
6.47 0.0809744
6.48 0.0826022
6.49 0.0842649
6.5 0.0859461
6.51 0.0876251
6.52 0.0892823
6.53 0.0909
6.54 0.0924617
6.55 0.093941
6.56 0.0953321
6.57 0.0966271
6.58 0.0978197
6.59 0.098896
6.6 0.099861
6.61 0.100725
6.62 0.101497
6.63 0.10218
6.64 0.102789
6.65 0.103346
6.66 0.103867
6.67 0.104367
6.68 0.104866
6.69 0.105379
6.7 0.105919
6.71 0.106497
6.72 0.107126
6.73 0.107804
6.74 0.108528
6.75 0.109292
6.76 0.110088
6.77 0.110896
6.78 0.111695
6.79 0.112462
6.8 0.113165
6.81 0.113766
6.82 0.114241
6.83 0.11456
6.84 0.114687
6.85 0.114563
6.86 0.114187
6.87 0.113539
6.88 0.112598
6.89 0.111305
6.9 0.109689
6.91 0.107756
6.92 0.105508
6.93 0.102929
6.94 0.100051
6.95 0.0969167
6.96 0.093555
6.97 0.0899895
6.98 0.0862596
6.99 0.0824236
7 0.0785236
7.01 0.0746022
7.02 0.0707101
7.03 0.0668877
7.04 0.0631711
7.05 0.0595924
7.06 0.0562059
7.07 0.0530141
7.08 0.0500282
7.09 0.0472561
7.1 0.0447209
7.11 0.042405
7.12 0.0402832
7.13 0.0383371
7.14 0.0365508
7.15 0.0348946
7.16 0.0333227
7.17 0.0318014
7.18 0.0302955
7.19 0.0287627
7.2 0.0271693
7.21 0.0254852
7.22 0.0236837
7.23 0.0217194
7.24 0.0195918
7.25 0.0172929
7.26 0.0148182
7.27 0.0121519
7.28 0.00931292
7.29 0.00632601
7.3 0.00321155
7.31 -1.02102e-05
7.32 -0.00330614
7.33 -0.00663428
7.34 -0.00995997
7.35 -0.0132456
7.36 -0.0164419
7.37 -0.0195214
7.38 -0.0224526
7.39 -0.0252072
7.4 -0.0277282
7.41 -0.0300212
7.42 -0.0320758
7.43 -0.0338842
7.44 -0.0354178
7.45 -0.0366949
7.46 -0.0377389
7.47 -0.0385646
7.48 -0.0391792
7.49 -0.0396061
7.5 -0.0398896
7.51 -0.0400577
7.52 -0.0401378
7.53 -0.0401578
7.54 -0.040156
7.55 -0.0401581
7.56 -0.0401876
7.57 -0.0402742
7.58 -0.0404291
7.59 -0.040663
7.6 -0.0409828
7.61 -0.0414005
7.62 -0.0419082
7.63 -0.0424945
7.64 -0.043149
7.65 -0.0438608
7.66 -0.0446117
7.67 -0.0453786
7.68 -0.0461427
7.69 -0.0468837
7.7 -0.0475758
7.71 -0.0482057
7.72 -0.0487586
7.73 -0.0492222
7.74 -0.0495712
7.75 -0.0498134
7.76 -0.049948
7.77 -0.0499771
7.78 -0.0498957
7.79 -0.0497202
7.8 -0.049468
7.81 -0.0491533
7.82 -0.0487904
7.83 -0.0484
7.84 -0.0480041
7.85 -0.0476205
7.86 -0.0472678
7.87 -0.0469689
7.88 -0.0467324
7.89 -0.046569
7.9 -0.0464864
7.91 -0.0465026
7.92 -0.0466063
7.93 -0.0467939
7.94 -0.0470593
7.95 -0.0474
7.96 -0.0477976
7.97 -0.0482347
7.98 -0.048695
7.99 -0.0491608
8 -0.0496109
8.01 -0.0500276
8.02 -0.0503945
8.03 -0.0506941
8.04 -0.0509036
8.05 -0.0510217
8.06 -0.0510409
8.07 -0.0509567
8.08 -0.0507517
8.09 -0.0504438
8.1 -0.0500393
8.11 -0.0495462
8.12 -0.0489681
8.13 -0.0483254
8.14 -0.0476363
8.15 -0.0469168
8.16 -0.0461833
8.17 -0.0454553
8.18 -0.044749
8.19 -0.0440785
8.2 -0.0434583
8.21 -0.0429056
8.22 -0.0424211
8.23 -0.0420092
8.24 -0.0416718
8.25 -0.0414185
8.26 -0.0412338
8.27 -0.0411099
8.28 -0.0410378
8.29 -0.0410093
8.3 -0.0410067
8.31 -0.0410141
8.32 -0.0410173
8.33 -0.0409991
8.34 -0.0409427
8.35 -0.0408373
8.36 -0.0406716
8.37 -0.0404332
8.38 -0.0401069
8.39 -0.039697
8.4 -0.0392013
8.41 -0.0386197
8.42 -0.037942
8.43 -0.0371862
8.44 -0.0363594
8.45 -0.0354696
8.46 -0.0345209
8.47 -0.033529
8.48 -0.0325063
8.49 -0.031463
8.5 -0.0304085
8.51 -0.0293528
8.52 -0.0283036
8.53 -0.0272664
8.54 -0.0262454
8.55 -0.0252441
8.56 -0.0242598
8.57 -0.0232903
8.58 -0.0223316
8.59 -0.0213784
8.6 -0.0204225
8.61 -0.0194563
8.62 -0.0184723
8.63 -0.0174587
8.64 -0.0164092
8.65 -0.0153189
8.66 -0.0141828
8.67 -0.0129936
8.68 -0.0117496
8.69 -0.0104559
8.7 -0.00911582
8.71 -0.0077332
8.72 -0.00631418
8.73 -0.00487338
8.74 -0.00342217
8.75 -0.0019732
8.76 -0.000544785
8.77 0.000849737
8.78 0.00219623
8.79 0.00348103
8.8 0.00468109
8.81 0.00578941
8.82 0.00680014
8.83 0.00770647
8.84 0.00849523
8.85 0.00916481
8.86 0.009726
8.87 0.0101836
8.88 0.0105415
8.89 0.0108051
8.9 0.0109986
8.91 0.0111368
8.92 0.0112358
8.93 0.0113121
8.94 0.0113889
8.95 0.0114837
8.96 0.0116133
8.97 0.0118012
8.98 0.0120591
8.99 0.0123959
9 0.0128204
9.01 0.0133463
9.02 0.0139763
9.03 0.0147019
9.04 0.0155189
9.05 0.0164236
9.06 0.0174097
9.07 0.0184549
9.08 0.0195443
9.09 0.0206619
9.1 0.0217894
9.11 0.0229054
9.12 0.0239924
9.13 0.0250335
9.14 0.0260037
9.15 0.0268924
9.16 0.0276906
9.17 0.0283894
9.18 0.0289731
9.19 0.0294387
9.2 0.0297944
9.21 0.0300432
9.22 0.0301864
9.23 0.0302268
9.24 0.0301867
9.25 0.0300782
9.26 0.0299146
9.27 0.029706
9.28 0.0294749
9.29 0.0292355
9.3 0.0290011
9.31 0.0287875
9.32 0.0286051
9.33 0.0284614
9.34 0.0283626
9.35 0.0283166
9.36 0.0283243
9.37 0.0283803
9.38 0.0284806
9.39 0.0286206
9.4 0.0287931
9.41 0.028984
9.42 0.0291827
9.43 0.0293777
9.44 0.0295532
9.45 0.0296989
9.46 0.0298041
9.47 0.0298593
9.48 0.029848
9.49 0.0297683
9.5 0.0296183
9.51 0.0293958
9.52 0.0290949
9.53 0.0287195
9.54 0.0282799
9.55 0.0277828
9.56 0.0272347
9.57 0.0266447
9.58 0.0260292
9.59 0.0253999
9.6 0.0247686
9.61 0.0241505
9.62 0.0235565
9.63 0.0229967
9.64 0.0224802
9.65 0.0220217
9.66 0.0216229
9.67 0.0212857
9.68 0.0210119
9.69 0.0208067
9.7 0.0206665
9.71 0.0205828
9.72 0.02055
9.73 0.0205631
9.74 0.0206154
9.75 0.0206936
9.76 0.020789
9.77 0.0208928
9.78 0.0209955
9.79 0.0210885
9.8 0.0211652
9.81 0.0212201
9.82 0.0212448
9.83 0.0212386
9.84 0.0212013
9.85 0.0211326
9.86 0.0210315
9.87 0.0209013
9.88 0.0207477
9.89 0.0205749
9.9 0.020387
9.91 0.0201893
9.92 0.0199878
9.93 0.0197869
9.94 0.0195903
9.95 0.0194026
9.96 0.0192244
9.97 0.0190565
9.98 0.0188982
9.99 0.0187485
10 0.0186031
10.01 0.0184575
10.02 0.0183066
10.03 0.018143
10.04 0.0179593
10.05 0.0177498
10.06 0.017508
10.07 0.0172254
10.08 0.0168927
10.09 0.0165098
10.1 0.0160731
10.11 0.0155796
10.12 0.0150205
10.13 0.0144051
10.14 0.0137355
10.15 0.0130154
10.16 0.0122444
10.17 0.0114342
10.18 0.0105934
10.19 0.00972962
10.2 0.00885054
10.21 0.00796627
10.22 0.00708564
10.23 0.00621599
10.24 0.00536506
10.25 0.00454034
10.26 0.00374348
10.27 0.00297666
10.28 0.00224087
10.29 0.00153864
10.3 0.000862272
10.31 0.000207067
10.32 -0.000433017
10.33 -0.00106524
10.34 -0.00169991
10.35 -0.00234612
10.36 -0.00301297
10.37 -0.00371306
10.38 -0.00445556
10.39 -0.00524569
10.4 -0.00608955
10.41 -0.00699499
10.42 -0.00796817
10.43 -0.00900289
10.44 -0.0100972
10.45 -0.0112475
10.46 -0.0124525
10.47 -0.0136954
10.48 -0.014965
10.49 -0.0162489
10.5 -0.0175313
10.51 -0.018795
10.52 -0.0200246
10.53 -0.0212045
10.54 -0.022312
10.55 -0.0233323
10.56 -0.0242574
10.57 -0.0250765
10.58 -0.0257743
10.59 -0.0263379
10.6 -0.0267767
10.61 -0.0270909
10.62 -0.0272817
10.63 -0.0273413
10.64 -0.0272965
10.65 -0.0271593
10.66 -0.0269435
10.67 -0.026659
10.68 -0.0263327
10.69 -0.0259846
10.7 -0.0256336
10.71 -0.0253018
10.72 -0.02501
10.73 -0.0247734
10.74 -0.0246068
10.75 -0.0245284
10.76 -0.0245542
10.77 -0.024682
10.78 -0.0249153
10.79 -0.0252565
10.8 -0.0257151
10.81 -0.0262694
10.82 -0.02691
10.83 -0.0276249
10.84 -0.0284061
10.85 -0.0292278
10.86 -0.0300709
10.87 -0.0309167
10.88 -0.0317425
10.89 -0.0325268
10.9 -0.0332527
10.91 -0.0339038
10.92 -0.0344589
10.93 -0.0348989
10.94 -0.0352234
10.95 -0.0354257
10.96 -0.0354993
10.97 -0.0354277
10.98 -0.0352319
10.99 -0.0349173
11 -0.0344923
11.01 -0.0339553
11.02 -0.0333332
11.03 -0.0326429
11.04 -0.0319006
11.05 -0.0311214
11.06 -0.0303271
11.07 -0.0295365
11.08 -0.0287659
11.09 -0.0280331
11.1 -0.0273561
11.11 -0.026742
11.12 -0.0261997
11.13 -0.0257372
11.14 -0.0253685
11.15 -0.0250831
11.16 -0.0248787
11.17 -0.0247508
11.18 -0.0247011
11.19 -0.0247104
11.2 -0.0247661
11.21 -0.0248551
11.22 -0.0249642
11.23 -0.0250749
11.24 -0.0251713
11.25 -0.0252385
11.26 -0.0252585
11.27 -0.0252134
11.28 -0.0250959
11.29 -0.0248958
11.3 -0.0246025
11.31 -0.0241975
11.32 -0.02369
11.33 -0.0230786
11.34 -0.0223643
11.35 -0.0215364
11.36 -0.0206138
11.37 -0.0196059
11.38 -0.018522
11.39 -0.0173677
11.4 -0.0161604
11.41 -0.0149168
11.42 -0.0136509
11.43 -0.012377
11.44 -0.0111121
11.45 -0.00987013
11.46 -0.00866375
11.47 -0.00750616
11.48 -0.00641607
11.49 -0.00539527
11.5 -0.00445083
11.51 -0.00358813
11.52 -0.00282329
11.53 -0.00214704
11.54 -0.00155733
11.55 -0.00105181
11.56 -0.000634249
11.57 -0.000293982
11.58 -1.92608e-05
11.59 0.000198327
11.6 0.000365711
11.61 0.000493768
11.62 0.000597407
11.63 0.000687282
11.64 0.000774127
11.65 0.000870531
11.66 0.000985893
11.67 0.00112866
11.68 0.00130622
11.69 0.00153142
11.7 0.00180398
11.71 0.00212608
11.72 0.002499
11.73 0.00292753
11.74 0.00340648
11.75 0.00392915
11.76 0.00449014
11.77 0.00508427
11.78 0.00570259
11.79 0.00633312
11.8 0.00696602
11.81 0.00759044
11.82 0.00819197
11.83 0.00876155
11.84 0.00928901
11.85 0.00976481
11.86 0.0101702
11.87 0.0105049
11.88 0.0107637
11.89 0.0109421
11.9 0.0110283
11.91 0.0110257
