[DEFAULT]

version = diffpy.pdfgetx-2.2.1

# input and output specifications
dataformat = twotheta
inputfile = Synthetic_CSH_CSH_pdf_ramp_300_08_normalized.chi
backgroundfiles = quartz_030degC_normalized.chi
outputtype = gr

# PDF calculation setup
mode = xray
wavelength = 0.2113
twothetazero = 0
composition = CaO SiO2
bgscales = 1.0
rpoly = 0.9
qmaxinst = 23.7031
qmin = 0.5
qmax = 20
rmin = 0
rmax = 60
rstep = 0.01

# End of config --------------------------------------------------------------

#### start data
#S 1
#L r(Å)  G(Å$^{-2}$)
0 0
0.01 -0.00273985
0.02 -0.00538544
0.03 -0.00785659
0.04 -0.0100778
0.05 -0.0119344
0.06 -0.0133849
0.07 -0.0143962
0.08 -0.0149345
0.09 -0.0149384
0.1 -0.0144034
0.11 -0.0133811
0.12 -0.011898
0.13 -0.00997936
0.14 -0.00766146
0.15 -0.0050616
0.16 -0.00225792
0.17 0.000663749
0.18 0.00360088
0.19 0.00644337
0.2 0.0090962
0.21 0.0114671
0.22 0.0134144
0.23 0.0148801
0.24 0.0158147
0.25 0.0161676
0.26 0.0158507
0.27 0.0148486
0.28 0.0132159
0.29 0.010978
0.3 0.00815838
0.31 0.00479799
0.32 0.00104864
0.33 -0.00298634
0.34 -0.00718967
0.35 -0.0114162
0.36 -0.0155045
0.37 -0.01931
0.38 -0.0226873
0.39 -0.0254054
0.4 -0.0273585
0.41 -0.0284464
0.42 -0.0285617
0.43 -0.0275196
0.44 -0.0252506
0.45 -0.0218004
0.46 -0.0171579
0.47 -0.0112888
0.48 -0.00416816
0.49 0.00398879
0.5 0.0130765
0.51 0.0229684
0.52 0.0335836
0.53 0.0446274
0.54 0.0559101
0.55 0.0672318
0.56 0.0783398
0.57 0.0890119
0.58 0.0990545
0.59 0.108277
0.6 0.116403
0.61 0.123257
0.62 0.128786
0.63 0.132888
0.64 0.135415
0.65 0.136209
0.66 0.135438
0.67 0.133123
0.68 0.129305
0.69 0.123868
0.7 0.117146
0.71 0.109267
0.72 0.100373
0.73 0.0905292
0.74 0.0800016
0.75 0.0689813
0.76 0.0576276
0.77 0.0460895
0.78 0.0345344
0.79 0.0230928
0.8 0.0118657
0.81 0.000950923
0.82 -0.00956237
0.83 -0.0196797
0.84 -0.0293923
0.85 -0.0387082
0.86 -0.0476098
0.87 -0.0562039
0.88 -0.0645481
0.89 -0.072706
0.9 -0.0807371
0.91 -0.0887255
0.92 -0.0967303
0.93 -0.104796
0.94 -0.112962
0.95 -0.121241
0.96 -0.129611
0.97 -0.138042
0.98 -0.146476
0.99 -0.154819
1 -0.162975
1.01 -0.170832
1.02 -0.178263
1.03 -0.185039
1.04 -0.191095
1.05 -0.196307
1.06 -0.200555
1.07 -0.203591
1.08 -0.205432
1.09 -0.206064
1.1 -0.205471
1.11 -0.203566
1.12 -0.200442
1.13 -0.196284
1.14 -0.191228
1.15 -0.185416
1.16 -0.17906
1.17 -0.172468
1.18 -0.16589
1.19 -0.159596
1.2 -0.153971
1.21 -0.149223
1.22 -0.145594
1.23 -0.143304
1.24 -0.142761
1.25 -0.143966
1.26 -0.146957
1.27 -0.151761
1.28 -0.158502
1.29 -0.167016
1.3 -0.177004
1.31 -0.188229
1.32 -0.200425
1.33 -0.213205
1.34 -0.226064
1.35 -0.238561
1.36 -0.250212
1.37 -0.260279
1.38 -0.268426
1.39 -0.27419
1.4 -0.277139
1.41 -0.276412
1.42 -0.271976
1.43 -0.263676
1.44 -0.251345
1.45 -0.234517
1.46 -0.213334
1.47 -0.18821
1.48 -0.15938
1.49 -0.127017
1.5 -0.0914774
1.51 -0.0536431
1.52 -0.0141135
1.53 0.0264561
1.54 0.0672831
1.55 0.1075
1.56 0.146355
1.57 0.183106
1.58 0.21656
1.59 0.246261
1.6 0.271686
1.61 0.292311
1.62 0.30717
1.63 0.316037
1.64 0.319068
1.65 0.316182
1.66 0.307099
1.67 0.291731
1.68 0.270991
1.69 0.245278
1.7 0.215025
1.71 0.180404
1.72 0.142703
1.73 0.102625
1.74 0.0609068
1.75 0.018276
1.76 -0.0243248
1.77 -0.0661672
1.78 -0.106584
1.79 -0.144717
1.8 -0.180008
1.81 -0.212167
1.82 -0.240859
1.83 -0.265624
1.84 -0.286133
1.85 -0.302767
1.86 -0.315611
1.87 -0.324784
1.88 -0.330165
1.89 -0.332608
1.9 -0.332506
1.91 -0.33029
1.92 -0.32625
1.93 -0.321101
1.94 -0.315328
1.95 -0.309352
1.96 -0.303606
1.97 -0.298464
1.98 -0.294156
1.99 -0.290856
2 -0.28873
2.01 -0.287836
2.02 -0.287975
2.03 -0.288987
2.04 -0.29065
2.05 -0.292663
2.06 -0.294589
2.07 -0.296036
2.08 -0.296593
2.09 -0.295594
2.1 -0.292725
2.11 -0.287626
2.12 -0.279946
2.13 -0.26907
2.14 -0.254838
2.15 -0.237281
2.16 -0.21633
2.17 -0.191805
2.18 -0.163706
2.19 -0.132587
2.2 -0.0987401
2.21 -0.0624995
2.22 -0.0241556
2.23 0.0154614
2.24 0.0557946
2.25 0.0962566
2.26 0.136089
2.27 0.174661
2.28 0.211393
2.29 0.245725
2.3 0.276792
2.31 0.304177
2.32 0.327681
2.33 0.346997
2.34 0.361619
2.35 0.371222
2.36 0.376219
2.37 0.376667
2.38 0.372613
2.39 0.363827
2.4 0.351221
2.41 0.335155
2.42 0.316041
2.43 0.294024
2.44 0.269966
2.45 0.244402
2.46 0.21782
2.47 0.190686
2.48 0.163552
2.49 0.136852
2.5 0.110953
2.51 0.0862604
2.52 0.0631292
2.53 0.0416346
2.54 0.0219111
2.55 0.0040806
2.56 -0.0116212
2.57 -0.0254906
2.58 -0.0376106
2.59 -0.0481005
2.6 -0.0569228
2.61 -0.0644645
2.62 -0.0709408
2.63 -0.0765484
2.64 -0.0814325
2.65 -0.0858425
2.66 -0.0899813
2.67 -0.0939961
2.68 -0.0980172
2.69 -0.102159
2.7 -0.106478
2.71 -0.111007
2.72 -0.115756
2.73 -0.120721
2.74 -0.125823
2.75 -0.130996
2.76 -0.136161
2.77 -0.141202
2.78 -0.146024
2.79 -0.150538
2.8 -0.154655
2.81 -0.15824
2.82 -0.16124
2.83 -0.163637
2.84 -0.1654
2.85 -0.166475
2.86 -0.166854
2.87 -0.166625
2.88 -0.165833
2.89 -0.164522
2.9 -0.162723
2.91 -0.160579
2.92 -0.158169
2.93 -0.155572
2.94 -0.152856
2.95 -0.150113
2.96 -0.1474
2.97 -0.14476
2.98 -0.142238
2.99 -0.139842
3 -0.137561
3.01 -0.135376
3.02 -0.133255
3.03 -0.13114
3.04 -0.12897
3.05 -0.126679
3.06 -0.124191
3.07 -0.121398
3.08 -0.118261
3.09 -0.114721
3.1 -0.110729
3.11 -0.106169
3.12 -0.101082
3.13 -0.0954697
3.14 -0.0893411
3.15 -0.0826736
3.16 -0.0755462
3.17 -0.0680429
3.18 -0.0602342
3.19 -0.0521899
3.2 -0.0440099
3.21 -0.0358017
3.22 -0.0276523
3.23 -0.0196502
3.24 -0.0119022
3.25 -0.00444534
3.26 0.00267691
3.27 0.00943785
3.28 0.0157754
3.29 0.021758
3.3 0.0274268
3.31 0.0328371
3.32 0.0380514
3.33 0.0431866
3.34 0.0483557
3.35 0.0536706
3.36 0.0592754
3.37 0.0653172
3.38 0.0718811
3.39 0.0790687
3.4 0.0869925
3.41 0.09581
3.42 0.105469
3.43 0.11599
3.44 0.127365
3.45 0.139677
3.46 0.152732
3.47 0.166428
3.48 0.180641
3.49 0.19525
3.5 0.210034
3.51 0.22479
3.52 0.239322
3.53 0.25338
3.54 0.266707
3.55 0.279148
3.56 0.290514
3.57 0.300585
3.58 0.309048
3.59 0.315946
3.6 0.321181
3.61 0.324686
3.62 0.326154
3.63 0.325843
3.64 0.323801
3.65 0.320096
3.66 0.314657
3.67 0.30773
3.68 0.299536
3.69 0.290238
3.7 0.279959
3.71 0.268909
3.72 0.257352
3.73 0.245472
3.74 0.233448
3.75 0.221472
3.76 0.209703
3.77 0.198268
3.78 0.187272
3.79 0.17689
3.8 0.167107
3.81 0.15795
3.82 0.149429
3.83 0.141601
3.84 0.134385
3.85 0.127702
3.86 0.121492
3.87 0.11571
3.88 0.11027
3.89 0.105064
3.9 0.100021
3.91 0.0950756
3.92 0.0901677
3.93 0.0852463
3.94 0.0802844
3.95 0.0752698
3.96 0.0702004
3.97 0.0651084
3.98 0.0600319
3.99 0.0550218
4 0.0501642
4.01 0.0455346
4.02 0.0412068
4.03 0.0372638
4.04 0.0338312
4.05 0.0310089
4.06 0.0288289
4.07 0.0273548
4.08 0.0266688
4.09 0.0268839
4.1 0.0279249
4.11 0.0297958
4.12 0.0324848
4.13 0.0360809
4.14 0.04041
4.15 0.0454069
4.16 0.0509968
4.17 0.0571421
4.18 0.0636941
4.19 0.0705302
4.2 0.0775458
4.21 0.0846336
4.22 0.0916704
4.23 0.0985553
4.24 0.105199
4.25 0.111505
4.26 0.11736
4.27 0.122749
4.28 0.127628
4.29 0.131964
4.3 0.135646
4.31 0.138755
4.32 0.141293
4.33 0.143274
4.34 0.144654
4.35 0.145506
4.36 0.145879
4.37 0.145805
4.38 0.145284
4.39 0.144352
4.4 0.143067
4.41 0.141453
4.42 0.139516
4.43 0.137248
4.44 0.134693
4.45 0.131855
4.46 0.128733
4.47 0.125276
4.48 0.121524
4.49 0.117469
4.5 0.113103
4.51 0.108383
4.52 0.103331
4.53 0.0979626
4.54 0.092283
4.55 0.0862817
4.56 0.0799813
4.57 0.0734306
4.58 0.0666603
4.59 0.0597008
4.6 0.0525896
4.61 0.0453926
4.62 0.0381571
4.63 0.0309313
4.64 0.0237791
4.65 0.0167416
4.66 0.00985954
4.67 0.0031686
4.68 -0.00327206
4.69 -0.00945734
4.7 -0.0153847
4.71 -0.0210517
4.72 -0.0264452
4.73 -0.0315866
4.74 -0.0365214
4.75 -0.0412833
4.76 -0.0459083
4.77 -0.0504431
4.78 -0.0549512
4.79 -0.0594826
4.8 -0.0640876
4.81 -0.0688393
4.82 -0.0737664
4.83 -0.0789049
4.84 -0.084284
4.85 -0.0899581
4.86 -0.0959152
4.87 -0.102144
4.88 -0.108632
4.89 -0.115375
4.9 -0.122331
4.91 -0.129439
4.92 -0.136649
4.93 -0.143904
4.94 -0.151129
4.95 -0.158257
4.96 -0.165224
4.97 -0.171964
4.98 -0.178364
4.99 -0.184408
5 -0.19005
5.01 -0.195248
5.02 -0.199909
5.03 -0.204053
5.04 -0.207685
5.05 -0.210805
5.06 -0.21338
5.07 -0.215436
5.08 -0.217037
5.09 -0.218212
5.1 -0.218982
5.11 -0.219367
5.12 -0.219449
5.13 -0.219266
5.14 -0.218851
5.15 -0.218212
5.16 -0.217404
5.17 -0.216447
5.18 -0.21535
5.19 -0.2141
5.2 -0.212704
5.21 -0.211151
5.22 -0.209424
5.23 -0.207477
5.24 -0.205279
5.25 -0.202811
5.26 -0.200042
5.27 -0.19692
5.28 -0.193388
5.29 -0.189461
5.3 -0.185119
5.31 -0.180347
5.32 -0.175082
5.33 -0.169397
5.34 -0.163311
5.35 -0.156851
5.36 -0.150016
5.37 -0.142895
5.38 -0.135553
5.39 -0.128053
5.4 -0.120461
5.41 -0.112864
5.42 -0.10534
5.43 -0.0979595
5.44 -0.0908064
5.45 -0.0839728
5.46 -0.0774891
5.47 -0.0714031
5.48 -0.0657577
5.49 -0.0606497
5.5 -0.0560257
5.51 -0.0518882
5.52 -0.0482288
5.53 -0.0450844
5.54 -0.0423741
5.55 -0.0400441
5.56 -0.0380472
5.57 -0.0363512
5.58 -0.0348829
5.59 -0.0335654
5.6 -0.0323413
5.61 -0.0311545
5.62 -0.0299447
5.63 -0.0286659
5.64 -0.027282
5.65 -0.0257634
5.66 -0.0240685
5.67 -0.0222118
5.68 -0.0201961
5.69 -0.0180333
5.7 -0.0157307
5.71 -0.0133346
5.72 -0.0108846
5.73 -0.00842117
5.74 -0.0059951
5.75 -0.00365948
5.76 -0.00145625
5.77 0.000572187
5.78 0.00237401
5.79 0.0038963
5.8 0.00513763
5.81 0.00607974
5.82 0.00670826
5.83 0.00697941
5.84 0.00694762
5.85 0.00662895
5.86 0.00604647
5.87 0.00520301
5.88 0.00416398
5.89 0.00297534
5.9 0.00167916
5.91 0.000316674
5.92 -0.00105994
5.93 -0.00240681
5.94 -0.00368705
5.95 -0.00486109
5.96 -0.00589051
5.97 -0.00676688
5.98 -0.00747649
5.99 -0.00800937
6 -0.00834136
6.01 -0.0085039
6.02 -0.00850733
6.03 -0.0083657
6.04 -0.00808097
6.05 -0.00768804
6.06 -0.0072085
6.07 -0.00665938
6.08 -0.00605114
6.09 -0.00539757
6.1 -0.00470691
6.11 -0.00397857
6.12 -0.00320292
6.13 -0.00236104
6.14 -0.00143704
6.15 -0.000404583
6.16 0.000770475
6.17 0.00215284
6.18 0.00376062
6.19 0.00563485
6.2 0.0078167
6.21 0.0103984
6.22 0.0133825
6.23 0.0167914
6.24 0.02065
6.25 0.0250222
6.26 0.029902
6.27 0.0352565
6.28 0.0410731
6.29 0.0473524
6.3 0.0540732
6.31 0.0611457
6.32 0.0685167
6.33 0.0761284
6.34 0.0839235
6.35 0.0917972
6.36 0.0996742
6.37 0.107478
6.38 0.115102
6.39 0.122481
6.4 0.129551
6.41 0.136251
6.42 0.142481
6.43 0.148204
6.44 0.153415
6.45 0.15809
6.46 0.162185
6.47 0.165674
6.48 0.168622
6.49 0.171047
6.5 0.172967
6.51 0.174363
6.52 0.175341
6.53 0.175943
6.54 0.176212
6.55 0.176154
6.56 0.17585
6.57 0.175343
6.58 0.174664
6.59 0.173828
6.6 0.172862
6.61 0.171788
6.62 0.170608
6.63 0.169314
6.64 0.16789
6.65 0.166329
6.66 0.164612
6.67 0.162711
6.68 0.160569
6.69 0.158186
6.7 0.155535
6.71 0.152595
6.72 0.149298
6.73 0.145666
6.74 0.1417
6.75 0.137399
6.76 0.132739
6.77 0.127754
6.78 0.122489
6.79 0.116979
6.8 0.111254
6.81 0.105366
6.82 0.0993882
6.83 0.0933778
6.84 0.0873972
6.85 0.0815284
6.86 0.0758259
6.87 0.0703474
6.88 0.0651476
6.89 0.0603286
6.9 0.0558974
6.91 0.0518819
6.92 0.0483081
6.93 0.0452416
6.94 0.042671
6.95 0.0405671
6.96 0.0389197
6.97 0.0377367
6.98 0.0370017
6.99 0.03664
7 0.0366146
7.01 0.0368909
7.02 0.0374474
7.03 0.0382016
7.04 0.0391101
7.05 0.0401312
7.06 0.0412308
7.07 0.0423597
7.08 0.0434861
7.09 0.0445833
7.1 0.0456225
7.11 0.0465867
7.12 0.0474676
7.13 0.0482578
7.14 0.0489469
7.15 0.0495309
7.16 0.0500204
7.17 0.0504178
7.18 0.0507239
7.19 0.0509315
7.2 0.0510535
7.21 0.051089
7.22 0.0510345
7.23 0.0508692
7.24 0.0505953
7.25 0.0502022
7.26 0.0496756
7.27 0.0489812
7.28 0.0481056
7.29 0.0470382
7.3 0.0457604
7.31 0.0442381
7.32 0.0424458
7.33 0.0403928
7.34 0.0380702
7.35 0.0354659
7.36 0.0325513
7.37 0.0293701
7.38 0.0259348
7.39 0.0222631
7.4 0.018351
7.41 0.0142599
7.42 0.0100266
7.43 0.00568869
7.44 0.0012845
7.45 -0.00313274
7.46 -0.00751694
7.47 -0.0118256
7.48 -0.0160072
7.49 -0.0200128
7.5 -0.0238208
7.51 -0.0274029
7.52 -0.0307286
7.53 -0.0337511
7.54 -0.0364956
7.55 -0.0389598
7.56 -0.0411479
7.57 -0.0430329
7.58 -0.04467
7.59 -0.0460844
7.6 -0.0473021
7.61 -0.0483369
7.62 -0.0492348
7.63 -0.0500356
7.64 -0.0507703
7.65 -0.0514677
7.66 -0.0521592
7.67 -0.0528698
7.68 -0.0536174
7.69 -0.0544171
7.7 -0.0552834
7.71 -0.0562108
7.72 -0.0571955
7.73 -0.0582289
7.74 -0.0593012
7.75 -0.0603881
7.76 -0.0614692
7.77 -0.0625226
7.78 -0.0635176
7.79 -0.0644311
7.8 -0.065245
7.81 -0.0659409
7.82 -0.0664931
7.83 -0.0668857
7.84 -0.0671253
7.85 -0.0672111
7.86 -0.0671428
7.87 -0.0669179
7.88 -0.0665708
7.89 -0.0661211
7.9 -0.0655916
7.91 -0.0650045
7.92 -0.064399
7.93 -0.0638048
7.94 -0.0632509
7.95 -0.0627761
7.96 -0.0624055
7.97 -0.0621575
7.98 -0.0620501
7.99 -0.0621084
8 -0.0623445
8.01 -0.0627461
8.02 -0.0633094
8.03 -0.0640303
8.04 -0.0649052
8.05 -0.0658959
8.06 -0.0669797
8.07 -0.0681316
8.08 -0.0693268
8.09 -0.0705284
8.1 -0.0717091
8.11 -0.0728433
8.12 -0.0738979
8.13 -0.074855
8.14 -0.0757036
8.15 -0.0764337
8.16 -0.0770312
8.17 -0.0774952
8.18 -0.0778431
8.19 -0.0780859
8.2 -0.0782365
8.21 -0.0783107
8.22 -0.0783411
8.23 -0.0783511
8.24 -0.0783645
8.25 -0.0784119
8.26 -0.0785128
8.27 -0.0786846
8.28 -0.0789411
8.29 -0.0793027
8.3 -0.0797661
8.31 -0.0803232
8.32 -0.080964
8.33 -0.081676
8.34 -0.0824325
8.35 -0.0831994
8.36 -0.0839436
8.37 -0.084625
8.38 -0.0851882
8.39 -0.0856012
8.4 -0.0858233
8.41 -0.0858157
8.42 -0.0854955
8.43 -0.0848682
8.44 -0.0839098
8.45 -0.0826016
8.46 -0.0808891
8.47 -0.078796
8.48 -0.076345
8.49 -0.0735513
8.5 -0.0704158
8.51 -0.066975
8.52 -0.0632948
8.53 -0.0594208
8.54 -0.0553999
8.55 -0.0512879
8.56 -0.0471571
8.57 -0.0430638
8.58 -0.0390632
8.59 -0.0352389
8.6 -0.0316217
8.61 -0.0282534
8.62 -0.0251698
8.63 -0.0224391
8.64 -0.0200604
8.65 -0.0180307
8.66 -0.0163522
8.67 -0.0150456
8.68 -0.0140951
8.69 -0.0134507
8.7 -0.0130849
8.71 -0.0129736
8.72 -0.0130918
8.73 -0.013372
8.74 -0.013775
8.75 -0.0142623
8.76 -0.0147989
8.77 -0.0153401
8.78 -0.0158567
8.79 -0.0163243
8.8 -0.0167138
8.81 -0.017016
8.82 -0.0172277
8.83 -0.0173484
8.84 -0.0173763
8.85 -0.0173235
8.86 -0.0172112
8.87 -0.0170567
8.88 -0.016879
8.89 -0.0167017
8.9 -0.0165469
8.91 -0.0164328
8.92 -0.0163757
8.93 -0.0164013
8.94 -0.0165078
8.95 -0.0166986
8.96 -0.0169723
8.97 -0.0173308
8.98 -0.0177541
8.99 -0.0182223
9 -0.0187148
9.01 -0.0192051
9.02 -0.019661
9.03 -0.0200547
9.04 -0.0203574
9.05 -0.0205352
9.06 -0.0205464
9.07 -0.0203835
9.08 -0.0200279
9.09 -0.0194653
9.1 -0.0186524
9.11 -0.0176211
9.12 -0.0163758
9.13 -0.0149269
9.14 -0.0132696
9.15 -0.0114454
9.16 -0.00948839
9.17 -0.00742913
9.18 -0.00529852
9.19 -0.00313943
9.2 -0.000992495
9.21 0.00110722
9.22 0.00312153
9.23 0.00500688
9.24 0.00674842
9.25 0.00832573
9.26 0.00972313
9.27 0.010902
9.28 0.01189
9.29 0.0126923
9.3 0.0133198
9.31 0.0137724
9.32 0.0140896
9.33 0.0143043
9.34 0.0144466
9.35 0.0145483
9.36 0.0146501
9.37 0.0147875
9.38 0.0149924
9.39 0.0153001
9.4 0.0157497
9.41 0.0163501
9.42 0.0171171
9.43 0.0180626
9.44 0.0192193
9.45 0.0205572
9.46 0.0220691
9.47 0.0237426
9.48 0.0255767
9.49 0.0275341
9.5 0.0295857
9.51 0.0317058
9.52 0.0338687
9.53 0.0360426
9.54 0.0382001
9.55 0.0403187
9.56 0.0423757
9.57 0.0443483
9.58 0.0462339
9.59 0.0480276
9.6 0.0497286
9.61 0.0513299
9.62 0.0528565
9.63 0.0543229
9.64 0.0557472
9.65 0.0571504
9.66 0.0585607
9.67 0.0600022
9.68 0.0614982
9.69 0.0630791
9.7 0.0647666
9.71 0.0665702
9.72 0.0685008
9.73 0.0705712
9.74 0.0727901
9.75 0.0751358
9.76 0.0775961
9.77 0.0801536
9.78 0.0827911
9.79 0.085465
9.8 0.0881415
9.81 0.0907838
9.82 0.0933378
9.83 0.0957638
9.84 0.0980234
9.85 0.100077
9.86 0.101861
9.87 0.103341
9.88 0.104504
9.89 0.105326
9.9 0.105771
9.91 0.1058
9.92 0.105451
9.93 0.104724
9.94 0.103625
9.95 0.10212
9.96 0.100286
9.97 0.0981481
9.98 0.0957357
9.99 0.0930547
10 0.0901691
10.01 0.0871222
10.02 0.0839501
10.03 0.0806828
10.04 0.0773619
10.05 0.074023
10.06 0.0706931
10.07 0.0673979
10.08 0.0641623
10.09 0.0609955
10.1 0.0579065
10.11 0.0549012
10.12 0.0519916
10.13 0.0491613
10.14 0.0464038
10.15 0.0437097
10.16 0.0410735
10.17 0.0384755
10.18 0.0359015
10.19 0.0333387
10.2 0.0307741
10.21 0.0281952
10.22 0.0255938
10.23 0.0229634
10.24 0.0202978
10.25 0.0175931
10.26 0.0148541
10.27 0.0120839
10.28 0.00928751
10.29 0.00647034
10.3 0.00364461
10.31 0.000819705
10.32 -0.00199449
10.33 -0.00478388
10.34 -0.00753959
10.35 -0.0102533
10.36 -0.0129168
10.37 -0.0155174
10.38 -0.01805
10.39 -0.0205145
10.4 -0.0229081
10.41 -0.0252252
10.42 -0.0274615
10.43 -0.0296249
10.44 -0.0317162
10.45 -0.0337354
10.46 -0.0356739
10.47 -0.0375423
10.48 -0.03934
10.49 -0.0410654
10.5 -0.0427053
10.51 -0.044263
10.52 -0.0457352
10.53 -0.0471154
10.54 -0.0483856
10.55 -0.0495392
10.56 -0.0505741
10.57 -0.0514815
10.58 -0.0522454
10.59 -0.0528502
10.6 -0.0533047
10.61 -0.0536052
10.62 -0.0537475
10.63 -0.0537132
10.64 -0.0535291
10.65 -0.0532027
10.66 -0.0527442
10.67 -0.0521524
10.68 -0.0514593
10.69 -0.0506863
10.7 -0.049854
10.71 -0.0489832
10.72 -0.0481019
10.73 -0.0472353
10.74 -0.0464053
10.75 -0.0456374
10.76 -0.0449568
10.77 -0.0443725
10.78 -0.0438964
10.79 -0.0435388
10.8 -0.0433189
10.81 -0.0432184
10.82 -0.0432313
10.83 -0.0433475
10.84 -0.0435628
10.85 -0.043846
10.86 -0.0441734
10.87 -0.044521
10.88 -0.0448603
10.89 -0.0451603
10.9 -0.0453959
10.91 -0.0455426
10.92 -0.04557
10.93 -0.0454499
10.94 -0.0451796
10.95 -0.0447488
10.96 -0.0441492
10.97 -0.0433608
10.98 -0.0424143
10.99 -0.0413217
11 -0.0401001
11.01 -0.0387597
11.02 -0.0373434
11.03 -0.0358832
11.04 -0.0344113
11.05 -0.0329669
11.06 -0.0315889
11.07 -0.0303083
11.08 -0.0291556
11.09 -0.0281695
11.1 -0.0273845
11.11 -0.026802
11.12 -0.0264338
11.13 -0.0262908
11.14 -0.0263981
11.15 -0.0267165
11.16 -0.0272316
11.17 -0.0279235
11.18 -0.028784
11.19 -0.0297602
11.2 -0.0308147
11.21 -0.0319109
11.22 -0.0330068
11.23 -0.0340569
11.24 -0.0350241
11.25 -0.0358736
11.26 -0.0365624
11.27 -0.0370515
11.28 -0.0373352
11.29 -0.0373979
11.3 -0.0372248
11.31 -0.0367857
11.32 -0.0361177
11.33 -0.0352319
11.34 -0.0341446
11.35 -0.0328556
11.36 -0.0314177
11.37 -0.0298643
11.38 -0.0282282
11.39 -0.026542
11.4 -0.0248483
11.41 -0.0231825
11.42 -0.0215756
11.43 -0.0200629
11.44 -0.0186767
11.45 -0.0174267
11.46 -0.0163266
11.47 -0.0153889
11.48 -0.0146354
11.49 -0.0140407
11.5 -0.0135968
11.51 -0.0132913
11.52 -0.0131233
11.53 -0.0130549
11.54 -0.0130625
11.55 -0.0131235
11.56 -0.0132157
11.57 -0.0133117
11.58 -0.0133903
11.59 -0.013434
11.6 -0.0134248
11.61 -0.0133489
11.62 -0.0132063
11.63 -0.0129962
11.64 -0.0127208
11.65 -0.0123834
11.66 -0.0120052
11.67 -0.0116021
11.68 -0.0111927
11.69 -0.0108025
11.7 -0.0104542
11.71 -0.0101692
11.72 -0.00996839
11.73 -0.00988398
11.74 -0.00992988
11.75 -0.010113
11.76 -0.0104421
11.77 -0.010932
11.78 -0.0115862
11.79 -0.0123844
11.8 -0.013316
11.81 -0.0143688
11.82 -0.0155307
11.83 -0.0167631
11.84 -0.0180401
11.85 -0.0193339
11.86 -0.0206096
11.87 -0.021836
11.88 -0.0229852
11.89 -0.0240309
11.9 -0.0249329
11.91 -0.0256744
11.92 -0.0262466
