[DEFAULT]

version = diffpy.pdfgetx-2.2.1

# input and output specifications
dataformat = twotheta
inputfile = Synthetic_CSH_CSH_pdf_ramp_600_03_normalized.chi
backgroundfiles = quartz_030degC_normalized.chi
outputtype = gr

# PDF calculation setup
mode = xray
wavelength = 0.2113
twothetazero = 0
composition = CaO SiO2
bgscales = 1.0
rpoly = 0.9
qmaxinst = 23.7031
qmin = 0.5
qmax = 20
rmin = 0
rmax = 60
rstep = 0.01

# End of config --------------------------------------------------------------

#### start data
#S 1
#L r(Å)  G(Å$^{-2}$)
0 0
0.01 -0.00233456
0.02 -0.00458276
0.03 -0.0066714
0.04 -0.00853203
0.05 -0.0100614
0.06 -0.0112239
0.07 -0.0119925
0.08 -0.0123401
0.09 -0.0122172
0.1 -0.0116262
0.11 -0.010619
0.12 -0.00922604
0.13 -0.00747823
0.14 -0.00541869
0.15 -0.00315382
0.16 -0.000757972
0.17 0.00168901
0.18 0.00408562
0.19 0.00634367
0.2 0.00838205
0.21 0.0101245
0.22 0.0114497
0.23 0.0123218
0.24 0.0127112
0.25 0.0125874
0.26 0.0118913
0.27 0.0106289
0.28 0.00886367
0.29 0.00663412
0.3 0.00398022
0.31 0.000960864
0.32 -0.00229031
0.33 -0.00567497
0.34 -0.00908548
0.35 -0.0123753
0.36 -0.0154264
0.37 -0.0181202
0.38 -0.0203407
0.39 -0.0218929
0.4 -0.022713
0.41 -0.0227374
0.42 -0.021895
0.43 -0.020051
0.44 -0.0171733
0.45 -0.0133237
0.46 -0.00851371
0.47 -0.00273709
0.48 0.00400237
0.49 0.0115186
0.5 0.0197139
0.51 0.0284764
0.52 0.0377212
0.53 0.0472227
0.54 0.0568302
0.55 0.0663885
0.56 0.0756952
0.57 0.0845912
0.58 0.092937
0.59 0.100594
0.6 0.107355
0.61 0.113097
0.62 0.117792
0.63 0.121365
0.64 0.12371
0.65 0.124705
0.66 0.124481
0.67 0.123047
0.68 0.120428
0.69 0.116513
0.7 0.111549
0.71 0.105613
0.72 0.0987935
0.73 0.0910989
0.74 0.0827171
0.75 0.0737752
0.76 0.0643726
0.77 0.0545815
0.78 0.0445128
0.79 0.0342706
0.8 0.0239245
0.81 0.0135341
0.82 0.00315529
0.83 -0.00717413
0.84 -0.0174299
0.85 -0.027596
0.86 -0.0376509
0.87 -0.0476092
0.88 -0.0574752
0.89 -0.067255
0.9 -0.0769447
0.91 -0.0865554
0.92 -0.0960874
0.93 -0.105532
0.94 -0.114863
0.95 -0.124049
0.96 -0.133062
0.97 -0.141856
0.98 -0.150359
0.99 -0.158475
1 -0.166166
1.01 -0.173356
1.02 -0.179964
1.03 -0.185811
1.04 -0.190916
1.05 -0.195217
1.06 -0.198664
1.07 -0.201099
1.08 -0.202587
1.09 -0.203158
1.1 -0.202833
1.11 -0.201584
1.12 -0.199508
1.13 -0.196758
1.14 -0.193446
1.15 -0.18969
1.16 -0.185649
1.17 -0.18153
1.18 -0.177503
1.19 -0.173747
1.2 -0.170524
1.21 -0.167947
1.22 -0.166168
1.23 -0.165316
1.24 -0.165646
1.25 -0.167137
1.26 -0.169795
1.27 -0.17362
1.28 -0.178673
1.29 -0.184828
1.3 -0.191877
1.31 -0.199653
1.32 -0.207963
1.33 -0.216534
1.34 -0.225039
1.35 -0.233179
1.36 -0.240625
1.37 -0.246863
1.38 -0.251683
1.39 -0.254769
1.4 -0.255823
1.41 -0.254234
1.42 -0.249978
1.43 -0.242936
1.44 -0.232971
1.45 -0.219719
1.46 -0.203243
1.47 -0.183805
1.48 -0.161528
1.49 -0.13647
1.5 -0.108809
1.51 -0.0791499
1.52 -0.047871
1.53 -0.0153884
1.54 0.0178471
1.55 0.0511736
1.56 0.0840683
1.57 0.116
1.58 0.146168
1.59 0.174149
1.6 0.199498
1.61 0.221768
1.62 0.240191
1.63 0.254465
1.64 0.264556
1.65 0.270265
1.66 0.271215
1.67 0.26713
1.68 0.258535
1.69 0.245555
1.7 0.228325
1.71 0.206655
1.72 0.181488
1.73 0.15322
1.74 0.122292
1.75 0.0889521
1.76 0.054018
1.77 0.0180589
1.78 -0.0184064
1.79 -0.0548182
1.8 -0.0905993
1.81 -0.125304
1.82 -0.158519
1.83 -0.189751
1.84 -0.218528
1.85 -0.244808
1.86 -0.268403
1.87 -0.289137
1.88 -0.306576
1.89 -0.32113
1.9 -0.332857
1.91 -0.341861
1.92 -0.347956
1.93 -0.351649
1.94 -0.35321
1.95 -0.35287
1.96 -0.35073
1.97 -0.347131
1.98 -0.342405
1.99 -0.336766
2 -0.330377
2.01 -0.323407
2.02 -0.316052
2.03 -0.308402
2.04 -0.300512
2.05 -0.292374
2.06 -0.283995
2.07 -0.275319
2.08 -0.266264
2.09 -0.256639
2.1 -0.246354
2.11 -0.235281
2.12 -0.223278
2.13 -0.210083
2.14 -0.195586
2.15 -0.179744
2.16 -0.162473
2.17 -0.143626
2.18 -0.123118
2.19 -0.101127
2.2 -0.0777184
2.21 -0.0529759
2.22 -0.0269384
2.23 1.38562e-05
2.24 0.0276439
2.25 0.0556819
2.26 0.0837987
2.27 0.111611
2.28 0.138774
2.29 0.164937
2.3 0.189573
2.31 0.212332
2.32 0.232971
2.33 0.251184
2.34 0.266516
2.35 0.278574
2.36 0.287447
2.37 0.292995
2.38 0.295053
2.39 0.29318
2.4 0.287882
2.41 0.279244
2.42 0.267401
2.43 0.25214
2.44 0.234103
2.45 0.213629
2.46 0.191034
2.47 0.166521
2.48 0.140604
2.49 0.113768
2.5 0.0864056
2.51 0.0589251
2.52 0.0317903
2.53 0.00536861
2.54 -0.0199995
2.55 -0.0439628
2.56 -0.0660111
2.57 -0.0861124
2.58 -0.104077
2.59 -0.119759
2.6 -0.132704
2.61 -0.14316
2.62 -0.151169
2.63 -0.156774
2.64 -0.159832
2.65 -0.160601
2.66 -0.159378
2.67 -0.156356
2.68 -0.151666
2.69 -0.145552
2.7 -0.138413
2.71 -0.130509
2.72 -0.122097
2.73 -0.113452
2.74 -0.10488
2.75 -0.0966145
2.76 -0.0888707
2.77 -0.0819723
2.78 -0.0760125
2.79 -0.0711142
2.8 -0.0673827
2.81 -0.0650295
2.82 -0.0640376
2.83 -0.0643421
2.84 -0.0659176
2.85 -0.0687847
2.86 -0.0728752
2.87 -0.0779632
2.88 -0.0839159
2.89 -0.0905965
2.9 -0.0978689
2.91 -0.105464
2.92 -0.113196
2.93 -0.120877
2.94 -0.12826
2.95 -0.135171
2.96 -0.141443
2.97 -0.146918
2.98 -0.151337
2.99 -0.154606
3 -0.156675
3.01 -0.157467
3.02 -0.156833
3.03 -0.154704
3.04 -0.151204
3.05 -0.146357
3.06 -0.140173
3.07 -0.132604
3.08 -0.123915
3.09 -0.114214
3.1 -0.103627
3.11 -0.0922006
3.12 -0.0802025
3.13 -0.067795
3.14 -0.0551333
3.15 -0.0423776
3.16 -0.0297082
3.17 -0.0172685
3.18 -0.00518768
3.19 0.00637784
3.2 0.0172974
3.21 0.0275388
3.22 0.037043
3.23 0.0457469
3.24 0.0535494
3.25 0.0605598
3.26 0.0668038
3.27 0.0723244
3.28 0.0770928
3.29 0.0812878
3.3 0.085006
3.31 0.0883461
3.32 0.0913952
3.33 0.0942963
3.34 0.0971702
3.35 0.100122
3.36 0.103268
3.37 0.10672
3.38 0.110535
3.39 0.114772
3.4 0.119493
3.41 0.124778
3.42 0.13057
3.43 0.136857
3.44 0.143608
3.45 0.150833
3.46 0.158398
3.47 0.166218
3.48 0.174203
3.49 0.182244
3.5 0.190212
3.51 0.19799
3.52 0.205465
3.53 0.212487
3.54 0.21892
3.55 0.224707
3.56 0.229761
3.57 0.23398
3.58 0.237212
3.59 0.239525
3.6 0.240895
3.61 0.241314
3.62 0.240655
3.63 0.239085
3.64 0.236659
3.65 0.233436
3.66 0.229414
3.67 0.224739
3.68 0.219534
3.69 0.213895
3.7 0.207903
3.71 0.201671
3.72 0.195319
3.73 0.188937
3.74 0.182608
3.75 0.176425
3.76 0.170437
3.77 0.164689
3.78 0.159213
3.79 0.154073
3.8 0.149232
3.81 0.144678
3.82 0.140389
3.83 0.136358
3.84 0.132522
3.85 0.128821
3.86 0.125205
3.87 0.121618
3.88 0.117994
3.89 0.114282
3.9 0.110434
3.91 0.106403
3.92 0.102135
3.93 0.0976328
3.94 0.0928874
3.95 0.0879011
3.96 0.0826561
3.97 0.0772183
3.98 0.0716292
3.99 0.0659395
4 0.0602131
4.01 0.0545339
4.02 0.0489801
4.03 0.0436329
4.04 0.0386051
4.05 0.0340004
4.06 0.0298751
4.07 0.0263068
4.08 0.0233932
4.09 0.0212684
4.1 0.0199046
4.11 0.0193423
4.12 0.0196103
4.13 0.0208582
4.14 0.0229549
4.15 0.0258824
4.16 0.0296118
4.17 0.0341842
4.18 0.0394769
4.19 0.0453885
4.2 0.05184
4.21 0.0587711
4.22 0.066068
4.23 0.0735937
4.24 0.0812435
4.25 0.0889076
4.26 0.0964542
4.27 0.103782
4.28 0.110791
4.29 0.117389
4.3 0.123399
4.31 0.128814
4.32 0.133567
4.33 0.137604
4.34 0.140785
4.35 0.143131
4.36 0.144655
4.37 0.145349
4.38 0.145152
4.39 0.14408
4.4 0.142227
4.41 0.139628
4.42 0.136301
4.43 0.132256
4.44 0.127633
4.45 0.122498
4.46 0.116917
4.47 0.110913
4.48 0.104624
4.49 0.0981222
4.5 0.0914786
4.51 0.0847603
4.52 0.0780479
4.53 0.0714034
4.54 0.0648815
4.55 0.0585486
4.56 0.0524544
4.57 0.0466178
4.58 0.0410651
4.59 0.0358284
4.6 0.030944
4.61 0.0263772
4.62 0.0221223
4.63 0.0181673
4.64 0.0145336
4.65 0.0111477
4.66 0.00797803
4.67 0.00498888
4.68 0.00215289
4.69 -0.000590742
4.7 -0.00329111
4.71 -0.00599269
4.72 -0.00874704
4.73 -0.0116049
4.74 -0.0146016
4.75 -0.0177734
4.76 -0.0211626
4.77 -0.0248182
4.78 -0.0287355
4.79 -0.032929
4.8 -0.0374081
4.81 -0.0422188
4.82 -0.0473101
4.83 -0.05267
4.84 -0.0582807
4.85 -0.0641439
4.86 -0.0702065
4.87 -0.0764271
4.88 -0.0827691
4.89 -0.0891966
4.9 -0.0956598
4.91 -0.102111
4.92 -0.10851
4.93 -0.114808
4.94 -0.120952
4.95 -0.126918
4.96 -0.132673
4.97 -0.138187
4.98 -0.143393
4.99 -0.148308
5 -0.152919
5.01 -0.157213
5.02 -0.161143
5.03 -0.164735
5.04 -0.168
5.05 -0.170942
5.06 -0.17354
5.07 -0.175806
5.08 -0.177772
5.09 -0.179447
5.1 -0.180826
5.11 -0.1819
5.12 -0.182706
5.13 -0.183249
5.14 -0.183531
5.15 -0.183514
5.16 -0.183237
5.17 -0.182697
5.18 -0.181891
5.19 -0.180779
5.2 -0.17938
5.21 -0.177698
5.22 -0.17573
5.23 -0.173448
5.24 -0.170855
5.25 -0.167976
5.26 -0.164816
5.27 -0.161374
5.28 -0.157648
5.29 -0.153689
5.3 -0.149519
5.31 -0.145165
5.32 -0.14064
5.33 -0.136007
5.34 -0.131304
5.35 -0.12657
5.36 -0.121854
5.37 -0.117204
5.38 -0.112658
5.39 -0.108258
5.4 -0.104058
5.41 -0.100094
5.42 -0.0963813
5.43 -0.0929411
5.44 -0.0898048
5.45 -0.0870016
5.46 -0.0845002
5.47 -0.082295
5.48 -0.0803762
5.49 -0.0787583
5.5 -0.0773724
5.51 -0.0761864
5.52 -0.0751638
5.53 -0.0742749
5.54 -0.0734578
5.55 -0.0726645
5.56 -0.0718503
5.57 -0.0709617
5.58 -0.0699513
5.59 -0.0687871
5.6 -0.0674365
5.61 -0.0658603
5.62 -0.0640203
5.63 -0.0619281
5.64 -0.0595779
5.65 -0.0569682
5.66 -0.0540751
5.67 -0.0509539
5.68 -0.0476277
5.69 -0.0441251
5.7 -0.0404657
5.71 -0.0367074
5.72 -0.032895
5.73 -0.029071
5.74 -0.0252851
5.75 -0.0215868
5.76 -0.0180135
5.77 -0.0146022
5.78 -0.0113985
5.79 -0.00844877
5.8 -0.00575353
5.81 -0.00332982
5.82 -0.00119253
5.83 0.000613844
5.84 0.00213364
5.85 0.00337446
5.86 0.00434894
5.87 0.00504399
5.88 0.00551093
5.89 0.00578182
5.9 0.00588428
5.91 0.00583748
5.92 0.00568082
5.93 0.00545313
5.94 0.00518348
5.95 0.00490025
5.96 0.00463423
5.97 0.00440874
5.98 0.00424357
5.99 0.00415689
6 0.00417655
6.01 0.00430069
6.02 0.00453665
6.03 0.00488935
6.04 0.00537774
6.05 0.00598959
6.06 0.00672099
6.07 0.00757028
6.08 0.00854609
6.09 0.00964239
6.1 0.0108498
6.11 0.0121671
6.12 0.0135998
6.13 0.015154
6.14 0.0168199
6.15 0.0185999
6.16 0.0204991
6.17 0.0225374
6.18 0.0247018
6.19 0.0269959
6.2 0.029423
6.21 0.0320042
6.22 0.0347253
6.23 0.0375821
6.24 0.0405719
6.25 0.0437014
6.26 0.0469574
6.27 0.0503214
6.28 0.0537808
6.29 0.0573242
6.3 0.060934
6.31 0.0645832
6.32 0.068251
6.33 0.0719158
6.34 0.0755487
6.35 0.0791293
6.36 0.0826367
6.37 0.0860512
6.38 0.0893371
6.39 0.0924897
6.4 0.0954989
6.41 0.0983551
6.42 0.101036
6.43 0.103542
6.44 0.105886
6.45 0.108071
6.46 0.110095
6.47 0.111962
6.48 0.113699
6.49 0.11532
6.5 0.116836
6.51 0.118253
6.52 0.119599
6.53 0.120887
6.54 0.122128
6.55 0.123328
6.56 0.124499
6.57 0.125645
6.58 0.126767
6.59 0.12786
6.6 0.128917
6.61 0.129931
6.62 0.13089
6.63 0.131776
6.64 0.132565
6.65 0.133247
6.66 0.133803
6.67 0.134213
6.68 0.134436
6.69 0.134476
6.7 0.134319
6.71 0.133954
6.72 0.133339
6.73 0.132494
6.74 0.131423
6.75 0.130128
6.76 0.128593
6.77 0.12684
6.78 0.124894
6.79 0.122773
6.8 0.120487
6.81 0.118057
6.82 0.115522
6.83 0.112905
6.84 0.11023
6.85 0.10752
6.86 0.104804
6.87 0.102104
6.88 0.0994375
6.89 0.0968291
6.9 0.0942867
6.91 0.0918184
6.92 0.08943
6.93 0.0871326
6.94 0.0849214
6.95 0.0827877
6.96 0.0807252
6.97 0.0787289
6.98 0.0767886
6.99 0.0748872
7 0.0730133
7.01 0.0711555
7.02 0.0693017
7.03 0.0674407
7.04 0.0655645
7.05 0.0636666
7.06 0.0617387
7.07 0.0597819
7.08 0.057797
7.09 0.0557866
7.1 0.0537532
7.11 0.051705
7.12 0.0496504
7.13 0.0475977
7.14 0.0455565
7.15 0.0435374
7.16 0.0415467
7.17 0.0395911
7.18 0.0376766
7.19 0.0358115
7.2 0.033991
7.21 0.0322133
7.22 0.0304746
7.23 0.0287721
7.24 0.0270918
7.25 0.0254222
7.26 0.0237511
7.27 0.0220617
7.28 0.0203379
7.29 0.0185663
7.3 0.0167329
7.31 0.0148188
7.32 0.0128082
7.33 0.0106995
7.34 0.0084865
7.35 0.00616281
7.36 0.0037169
7.37 0.00116732
7.38 -0.00147854
7.39 -0.00421006
7.4 -0.00702163
7.41 -0.00988433
7.42 -0.0127774
7.43 -0.0156793
7.44 -0.0185627
7.45 -0.0214006
7.46 -0.0241701
7.47 -0.026848
7.48 -0.0294034
7.49 -0.0318092
7.5 -0.0340596
7.51 -0.0361407
7.52 -0.0380367
7.53 -0.0397202
7.54 -0.0412131
7.55 -0.042517
7.56 -0.0436367
7.57 -0.0445562
7.58 -0.0453131
7.59 -0.0459241
7.6 -0.0464062
7.61 -0.0467676
7.62 -0.0470372
7.63 -0.0472401
7.64 -0.0473951
7.65 -0.0475194
7.66 -0.047632
7.67 -0.047749
7.68 -0.0478818
7.69 -0.0480398
7.7 -0.0482327
7.71 -0.048459
7.72 -0.048718
7.73 -0.0490065
7.74 -0.0493215
7.75 -0.0496509
7.76 -0.049985
7.77 -0.0503137
7.78 -0.0506233
7.79 -0.0509027
7.8 -0.0511433
7.81 -0.0513368
7.82 -0.0514725
7.83 -0.0515441
7.84 -0.0515552
7.85 -0.0515065
7.86 -0.0514001
7.87 -0.0512382
7.88 -0.0510369
7.89 -0.0508072
7.9 -0.0505614
7.91 -0.050315
7.92 -0.0500845
7.93 -0.0498844
7.94 -0.0497286
7.95 -0.0496377
7.96 -0.0496207
7.97 -0.0496833
7.98 -0.0498314
7.99 -0.0500744
8 -0.0504132
8.01 -0.0508358
8.02 -0.0513347
8.03 -0.0519014
8.04 -0.0525252
8.05 -0.0531819
8.06 -0.0538535
8.07 -0.0545209
8.08 -0.0551574
8.09 -0.0557445
8.1 -0.0562632
8.11 -0.0566961
8.12 -0.0570146
8.13 -0.0572108
8.14 -0.0572808
8.15 -0.0572191
8.16 -0.0570142
8.17 -0.0566677
8.18 -0.0561983
8.19 -0.0556168
8.2 -0.0549347
8.21 -0.0541651
8.22 -0.0533402
8.23 -0.0524821
8.24 -0.0516136
8.25 -0.0507639
8.26 -0.0499565
8.27 -0.0492126
8.28 -0.0485517
8.29 -0.0480036
8.3 -0.0475762
8.31 -0.0472735
8.32 -0.0471
8.33 -0.0470652
8.34 -0.0471646
8.35 -0.0473773
8.36 -0.0476897
8.37 -0.0480863
8.38 -0.048548
8.39 -0.0490413
8.4 -0.0495407
8.41 -0.0500197
8.42 -0.0504403
8.43 -0.0507806
8.44 -0.0510168
8.45 -0.051127
8.46 -0.0510735
8.47 -0.0508497
8.48 -0.0504521
8.49 -0.0498746
8.5 -0.0491024
8.51 -0.048139
8.52 -0.0470084
8.53 -0.045724
8.54 -0.0442983
8.55 -0.0427452
8.56 -0.0411047
8.57 -0.0394018
8.58 -0.0376628
8.59 -0.0359169
8.6 -0.0341945
8.61 -0.03252
8.62 -0.030916
8.63 -0.0294149
8.64 -0.0280286
8.65 -0.0267653
8.66 -0.0256334
8.67 -0.024648
8.68 -0.0238095
8.69 -0.0231023
8.7 -0.0225185
8.71 -0.0220512
8.72 -0.0216924
8.73 -0.0214127
8.74 -0.0211947
8.75 -0.0210207
8.76 -0.0208739
8.77 -0.0207311
8.78 -0.0205765
8.79 -0.0203962
8.8 -0.0201726
8.81 -0.0198984
8.82 -0.0195698
8.83 -0.0191838
8.84 -0.018736
8.85 -0.0182301
8.86 -0.0176765
8.87 -0.0170829
8.88 -0.016458
8.89 -0.0158125
8.9 -0.0151608
8.91 -0.014514
8.92 -0.0138821
8.93 -0.0132794
8.94 -0.0127099
8.95 -0.0121783
8.96 -0.0116868
8.97 -0.0112398
8.98 -0.0108299
8.99 -0.0104492
9 -0.0100886
9.01 -0.00973655
9.02 -0.00937695
9.03 -0.00899432
9.04 -0.00857291
9.05 -0.00809371
9.06 -0.00753288
9.07 -0.00688302
9.08 -0.00613144
9.09 -0.00526736
9.1 -0.00426325
9.11 -0.00313351
9.12 -0.0018777
9.13 -0.000498913
9.14 0.00100916
9.15 0.00262415
9.16 0.00432716
9.17 0.00610078
9.18 0.0079274
9.19 0.0097802
9.2 0.0116321
9.21 0.0134592
9.22 0.0152345
9.23 0.016926
9.24 0.0185196
9.25 0.0199971
9.26 0.0213428
9.27 0.0225219
9.28 0.0235489
9.29 0.0244215
9.3 0.0251415
9.31 0.0256983
9.32 0.0261173
9.33 0.026419
9.34 0.0266217
9.35 0.0267421
9.36 0.026809
9.37 0.0268529
9.38 0.0268991
9.39 0.026975
9.4 0.0271122
9.41 0.0273281
9.42 0.0276413
9.43 0.0280677
9.44 0.0286388
9.45 0.0293425
9.46 0.0301805
9.47 0.0311497
9.48 0.0322573
9.49 0.0334777
9.5 0.0347904
9.51 0.0361756
9.52 0.0376131
9.53 0.0390732
9.54 0.0405266
9.55 0.0419475
9.56 0.0433068
9.57 0.044571
9.58 0.0457266
9.59 0.0467556
9.6 0.0476427
9.61 0.0483542
9.62 0.0489079
9.63 0.0493036
9.64 0.0495462
9.65 0.0496279
9.66 0.0495785
9.67 0.0494209
9.68 0.0491764
9.69 0.0488654
9.7 0.0485198
9.71 0.0481702
9.72 0.0478432
9.73 0.0475676
9.74 0.0473759
9.75 0.0472823
9.76 0.0473035
9.77 0.0474536
9.78 0.0477614
9.79 0.0482091
9.8 0.0487939
9.81 0.0495081
9.82 0.050352
9.83 0.0512937
9.84 0.0523071
9.85 0.0533663
9.86 0.0544417
9.87 0.0554962
9.88 0.056497
9.89 0.0574123
9.9 0.0582037
9.91 0.0588275
9.92 0.0592716
9.93 0.0595131
9.94 0.0595312
9.95 0.0592766
9.96 0.0587758
9.97 0.0580262
9.98 0.0570303
9.99 0.0557667
10 0.0542747
10.01 0.0525803
10.02 0.0507061
10.03 0.048667
10.04 0.0465008
10.05 0.044249
10.06 0.0419435
10.07 0.0396172
10.08 0.0373073
10.09 0.0350447
10.1 0.032856
10.11 0.0307662
10.12 0.028814
10.13 0.0269987
10.14 0.0253302
10.15 0.023814
10.16 0.0224707
10.17 0.0212791
10.18 0.0202256
10.19 0.0192967
10.2 0.0184839
10.21 0.0177607
10.22 0.0170974
10.23 0.0164703
10.24 0.0158538
10.25 0.0152181
10.26 0.0145391
10.27 0.0137945
10.28 0.0129632
10.29 0.0120115
10.3 0.0109397
10.31 0.00973813
10.32 0.0084009
10.33 0.00690785
10.34 0.00527656
10.35 0.00351762
10.36 0.00164138
10.37 -0.00034664
10.38 -0.00242357
10.39 -0.00456309
10.4 -0.00674387
10.41 -0.00894299
10.42 -0.0111326
10.43 -0.0132879
10.44 -0.0153863
10.45 -0.0174049
10.46 -0.0193077
10.47 -0.0210899
10.48 -0.0227366
10.49 -0.0242361
10.5 -0.0255574
10.51 -0.0267116
10.52 -0.0277009
10.53 -0.0285265
10.54 -0.0291784
10.55 -0.02967
10.56 -0.0300219
10.57 -0.0302467
10.58 -0.0303531
10.59 -0.030355
10.6 -0.0302809
10.61 -0.030148
10.62 -0.0299735
10.63 -0.0297743
10.64 -0.029572
10.65 -0.0293819
10.66 -0.0292178
10.67 -0.029099
10.68 -0.0290327
10.69 -0.0290262
10.7 -0.0290854
10.71 -0.0292213
10.72 -0.0294337
10.73 -0.0297172
10.74 -0.0300694
10.75 -0.0304894
10.76 -0.0309726
10.77 -0.0315048
10.78 -0.0320773
10.79 -0.0326809
10.8 -0.0333059
10.81 -0.0339377
10.82 -0.0345653
10.83 -0.035178
10.84 -0.0357605
10.85 -0.0363046
10.86 -0.036802
10.87 -0.0372446
10.88 -0.0376191
10.89 -0.037921
10.9 -0.0381502
10.91 -0.0383041
10.92 -0.038377
10.93 -0.0383658
10.94 -0.0382805
10.95 -0.0381242
10.96 -0.0379004
10.97 -0.0376085
10.98 -0.0372648
10.99 -0.0368773
11 -0.0364547
11.01 -0.0360042
11.02 -0.0355397
11.03 -0.0350718
11.04 -0.0346104
11.05 -0.0341676
11.06 -0.0337536
11.07 -0.0333756
11.08 -0.033041
11.09 -0.0327596
11.1 -0.0325396
11.11 -0.0323792
11.12 -0.0322804
11.13 -0.0322447
11.14 -0.0322778
11.15 -0.0323677
11.16 -0.0325093
11.17 -0.0326964
11.18 -0.032925
11.19 -0.0331798
11.2 -0.0334495
11.21 -0.0337227
11.22 -0.033985
11.23 -0.0342218
11.24 -0.034421
11.25 -0.0345703
11.26 -0.034653
11.27 -0.0346531
11.28 -0.0345672
11.29 -0.0343868
11.3 -0.0341024
11.31 -0.033696
11.32 -0.0331792
11.33 -0.0325512
11.34 -0.0318136
11.35 -0.0309556
11.36 -0.0299973
11.37 -0.0289487
11.38 -0.02782
11.39 -0.0266172
11.4 -0.0253588
11.41 -0.0240632
11.42 -0.0227457
11.43 -0.0214224
11.44 -0.0201124
11.45 -0.0188313
11.46 -0.0175937
11.47 -0.016415
11.48 -0.0153172
11.49 -0.0143023
11.5 -0.0133786
11.51 -0.0125526
11.52 -0.0118436
11.53 -0.0112404
11.54 -0.0107403
11.55 -0.0103405
11.56 -0.0100451
11.57 -0.00984082
11.58 -0.00971334
11.59 -0.00965215
11.6 -0.00964836
11.61 -0.00968847
11.62 -0.00975469
11.63 -0.00983424
11.64 -0.00991438
11.65 -0.00998033
11.66 -0.010022
11.67 -0.0100305
11.68 -0.0099982
11.69 -0.00991222
11.7 -0.00977473
11.71 -0.00958528
11.72 -0.00934467
11.73 -0.00905101
11.74 -0.00871255
11.75 -0.00833869
11.76 -0.00793766
11.77 -0.00751835
11.78 -0.00709296
11.79 -0.0066739
11.8 -0.00627225
11.81 -0.00589993
11.82 -0.00557311
11.83 -0.0052968
11.84 -0.00507895
11.85 -0.00492605
11.86 -0.00485359
11.87 -0.00485512
11.88 -0.00493004
11.89 -0.00507667
11.9 -0.00529798
11.91 -0.00558327
