[DEFAULT]

version = diffpy.pdfgetx-2.2.1

# input and output specifications
dataformat = twotheta
inputfile = Synthetic_CSH_CSH_pdf_ramp_800_08_normalized.chi
backgroundfiles = quartz_030degC_normalized.chi
outputtype = gr

# PDF calculation setup
mode = xray
wavelength = 0.2113
twothetazero = 0
composition = CaO SiO2
bgscales = 1.0
rpoly = 0.9
qmaxinst = 23.7031
qmin = 0.5
qmax = 20
rmin = 0
rmax = 60
rstep = 0.01

# End of config --------------------------------------------------------------

#### start data
#S 1
#L r(Å)  G(Å$^{-2}$)
0 0
0.01 -0.00183895
0.02 -0.00361341
0.03 -0.00526859
0.04 -0.00675294
0.05 -0.00798828
0.06 -0.00894652
0.07 -0.00960562
0.08 -0.009943
0.09 -0.00991774
0.1 -0.00952778
0.11 -0.00880937
0.12 -0.00778174
0.13 -0.00646374
0.14 -0.00488235
0.15 -0.00311822
0.16 -0.00122605
0.17 0.000734222
0.18 0.00268905
0.19 0.00456421
0.2 0.00629391
0.21 0.00781444
0.22 0.00902633
0.23 0.00989127
0.24 0.0103762
0.25 0.0104468
0.26 0.0100426
0.27 0.00915446
0.28 0.00782284
0.29 0.00606723
0.3 0.00390633
0.31 0.00137216
0.32 -0.0014263
0.33 -0.00441307
0.34 -0.00750168
0.35 -0.0105812
0.36 -0.0135349
0.37 -0.0162541
0.38 -0.0186285
0.39 -0.0204785
0.4 -0.0217219
0.41 -0.022278
0.42 -0.0220583
0.43 -0.0209087
0.44 -0.0187632
0.45 -0.0156471
0.46 -0.0115376
0.47 -0.00638788
0.48 -0.000151456
0.49 0.00701151
0.5 0.0150358
0.51 0.0238395
0.52 0.0334006
0.53 0.0434756
0.54 0.0539232
0.55 0.06459
0.56 0.0752986
0.57 0.0858477
0.58 0.0960633
0.59 0.105774
0.6 0.114739
0.61 0.122776
0.62 0.129795
0.63 0.135663
0.64 0.140206
0.65 0.143223
0.66 0.144795
0.67 0.144879
0.68 0.143445
0.69 0.14028
0.7 0.135648
0.71 0.129605
0.72 0.122226
0.73 0.113463
0.74 0.103559
0.75 0.0926839
0.76 0.0809736
0.77 0.0685252
0.78 0.0555247
0.79 0.0421679
0.8 0.0285989
0.81 0.0149592
0.82 0.0014045
0.83 -0.0119451
0.84 -0.024987
0.85 -0.0376287
0.86 -0.0497185
0.87 -0.0612668
0.88 -0.0722351
0.89 -0.0825995
0.9 -0.0922708
0.91 -0.101313
0.92 -0.109761
0.93 -0.117641
0.94 -0.124938
0.95 -0.131705
0.96 -0.138019
0.97 -0.14392
0.98 -0.14943
0.99 -0.154567
1 -0.159405
1.01 -0.163968
1.02 -0.168274
1.03 -0.172307
1.04 -0.176113
1.05 -0.179695
1.06 -0.183056
1.07 -0.186165
1.08 -0.189042
1.09 -0.191692
1.1 -0.194117
1.11 -0.196302
1.12 -0.198265
1.13 -0.200039
1.14 -0.201648
1.15 -0.203117
1.16 -0.204489
1.17 -0.205822
1.18 -0.20717
1.19 -0.208588
1.2 -0.210162
1.21 -0.211936
1.22 -0.213964
1.23 -0.216295
1.24 -0.219016
1.25 -0.222124
1.26 -0.225616
1.27 -0.229486
1.28 -0.233734
1.29 -0.238291
1.3 -0.243057
1.31 -0.247931
1.32 -0.252783
1.33 -0.257428
1.34 -0.261702
1.35 -0.265418
1.36 -0.268364
1.37 -0.270163
1.38 -0.270721
1.39 -0.269823
1.4 -0.267262
1.41 -0.262575
1.42 -0.25576
1.43 -0.246726
1.44 -0.235362
1.45 -0.221364
1.46 -0.20476
1.47 -0.185738
1.48 -0.164366
1.49 -0.140655
1.5 -0.114706
1.51 -0.0869857
1.52 -0.0577744
1.53 -0.0273841
1.54 0.00386542
1.55 0.0354114
1.56 0.0668245
1.57 0.0976576
1.58 0.127252
1.59 0.155197
1.6 0.181076
1.61 0.20446
1.62 0.224638
1.63 0.241269
1.64 0.254242
1.65 0.263301
1.66 0.268015
1.67 0.268021
1.68 0.263709
1.69 0.255096
1.7 0.242207
1.71 0.224704
1.72 0.203428
1.73 0.178675
1.74 0.15079
1.75 0.119852
1.76 0.0866662
1.77 0.0517658
1.78 0.0156374
1.79 -0.0212433
1.8 -0.0582664
1.81 -0.0949105
1.82 -0.130716
1.83 -0.165155
1.84 -0.197687
1.85 -0.228119
1.86 -0.256161
1.87 -0.281531
1.88 -0.303675
1.89 -0.32287
1.9 -0.339068
1.91 -0.35227
1.92 -0.362141
1.93 -0.369139
1.94 -0.373484
1.95 -0.375358
1.96 -0.374774
1.97 -0.372084
1.98 -0.367667
1.99 -0.361765
2 -0.354557
2.01 -0.34626
2.02 -0.337196
2.03 -0.327539
2.04 -0.317428
2.05 -0.306951
2.06 -0.296237
2.07 -0.285322
2.08 -0.27421
2.09 -0.262837
2.1 -0.25116
2.11 -0.2391
2.12 -0.226555
2.13 -0.213339
2.14 -0.199332
2.15 -0.184453
2.16 -0.168592
2.17 -0.151584
2.18 -0.133296
2.19 -0.113797
2.2 -0.0930767
2.21 -0.0711366
2.22 -0.0479167
2.23 -0.0236955
2.24 0.00137725
2.25 0.0271149
2.26 0.0533221
2.27 0.0796508
2.28 0.105804
2.29 0.131472
2.3 0.156215
2.31 0.179674
2.32 0.201569
2.33 0.221576
2.34 0.239235
2.35 0.254117
2.36 0.266199
2.37 0.275275
2.38 0.281106
2.39 0.283174
2.4 0.28187
2.41 0.277193
2.42 0.269193
2.43 0.257538
2.44 0.242812
2.45 0.22529
2.46 0.205234
2.47 0.182748
2.48 0.158327
2.49 0.132461
2.5 0.10553
2.51 0.0779098
2.52 0.0500576
2.53 0.0224136
2.54 -0.00465421
2.55 -0.0307704
2.56 -0.0554264
2.57 -0.0784891
2.58 -0.0997268
2.59 -0.118951
2.6 -0.135696
2.61 -0.150139
2.62 -0.162287
2.63 -0.172156
2.64 -0.179591
2.65 -0.184829
2.66 -0.188151
2.67 -0.189746
2.68 -0.189753
2.69 -0.18842
2.7 -0.186147
2.71 -0.183202
2.72 -0.17985
2.73 -0.176383
2.74 -0.173094
2.75 -0.170211
2.76 -0.167941
2.77 -0.166595
2.78 -0.166231
2.79 -0.166933
2.8 -0.168767
2.81 -0.171877
2.82 -0.176182
2.83 -0.181556
2.84 -0.187905
2.85 -0.195143
2.86 -0.203099
2.87 -0.211506
2.88 -0.220155
2.89 -0.22882
2.9 -0.237206
2.91 -0.245083
2.92 -0.252221
2.93 -0.258398
2.94 -0.263205
2.95 -0.266586
2.96 -0.268399
2.97 -0.268509
2.98 -0.266612
2.99 -0.262727
3 -0.256925
3.01 -0.249212
3.02 -0.239509
3.03 -0.227865
3.04 -0.214568
3.05 -0.199764
3.06 -0.18359
3.07 -0.166156
3.08 -0.147848
3.09 -0.128894
3.1 -0.10953
3.11 -0.0900048
3.12 -0.0706091
3.13 -0.0515729
3.14 -0.0331128
3.15 -0.0155342
3.16 0.000999976
3.17 0.0163828
3.18 0.030492
3.19 0.0431353
3.2 0.0542109
3.21 0.0638244
3.22 0.0719862
3.23 0.0786985
3.24 0.0839126
3.25 0.0879193
3.26 0.0908504
3.27 0.0928594
3.28 0.0940334
3.29 0.094689
3.3 0.0950325
3.31 0.0952674
3.32 0.0956307
3.33 0.0963493
3.34 0.0976047
3.35 0.0995718
3.36 0.10248
3.37 0.106512
3.38 0.111691
3.39 0.1181
3.4 0.125832
3.41 0.135041
3.42 0.145547
3.43 0.157307
3.44 0.170253
3.45 0.184434
3.46 0.199555
3.47 0.215458
3.48 0.231977
3.49 0.248956
3.5 0.26614
3.51 0.283309
3.52 0.300258
3.53 0.316737
3.54 0.332501
3.55 0.347402
3.56 0.361268
3.57 0.373897
3.58 0.384998
3.59 0.394615
3.6 0.402658
3.61 0.409056
3.62 0.413502
3.63 0.416223
3.64 0.417237
3.65 0.416575
3.66 0.414108
3.67 0.410024
3.68 0.404488
3.69 0.397597
3.7 0.389381
3.71 0.379963
3.72 0.369574
3.73 0.358335
3.74 0.346347
3.75 0.333693
3.76 0.320569
3.77 0.307078
3.78 0.293312
3.79 0.279334
3.8 0.265249
3.81 0.251116
3.82 0.236978
3.83 0.222877
3.84 0.20884
3.85 0.194879
3.86 0.181003
3.87 0.167222
3.88 0.153537
3.89 0.139939
3.9 0.126428
3.91 0.11301
3.92 0.0997024
3.93 0.0865075
3.94 0.0734461
3.95 0.0605462
3.96 0.0478813
3.97 0.0354731
3.98 0.0233753
3.99 0.0116497
4 0.000424372
4.01 -0.0102462
4.02 -0.0203037
4.03 -0.0296683
4.04 -0.0381951
4.05 -0.0457848
4.06 -0.0524314
4.07 -0.0580691
4.08 -0.0625994
4.09 -0.0658716
4.1 -0.0679869
4.11 -0.0689265
4.12 -0.0686854
4.13 -0.0670933
4.14 -0.0643624
4.15 -0.0605411
4.16 -0.0556891
4.17 -0.0497777
4.18 -0.0429818
4.19 -0.0354428
4.2 -0.0272715
4.21 -0.0185568
4.22 -0.00944686
4.23 -0.000110092
4.24 0.009325
4.25 0.0187252
4.26 0.0279336
4.27 0.0368425
4.28 0.0453457
4.29 0.0533465
4.3 0.0606551
4.31 0.0672867
4.32 0.073188
4.33 0.0783193
4.34 0.0825593
4.35 0.0859612
4.36 0.0885659
4.37 0.0903948
4.38 0.0914267
4.39 0.091717
4.4 0.091383
4.41 0.0904905
4.42 0.0890954
4.43 0.087256
4.44 0.0851089
4.45 0.082735
4.46 0.0802147
4.47 0.0776267
4.48 0.0750636
4.49 0.0725927
4.5 0.0702752
4.51 0.0681961
4.52 0.0663905
4.53 0.0648854
4.54 0.0637078
4.55 0.0629056
4.56 0.0624891
4.57 0.0624307
4.58 0.062723
4.59 0.063365
4.6 0.0643563
4.61 0.06563
4.62 0.0671544
4.63 0.0688944
4.64 0.0708327
4.65 0.0728954
4.66 0.07504
4.67 0.0772226
4.68 0.0793933
4.69 0.0815019
4.7 0.0835058
4.71 0.0853626
4.72 0.087012
4.73 0.0884068
4.74 0.089524
4.75 0.0903267
4.76 0.0907625
4.77 0.0907627
4.78 0.0903372
4.79 0.0894552
4.8 0.088086
4.81 0.0861191
4.82 0.083607
4.83 0.0805267
4.84 0.0768576
4.85 0.0725048
4.86 0.0675042
4.87 0.0618674
4.88 0.0555872
4.89 0.0486062
4.9 0.0409321
4.91 0.0326218
4.92 0.023688
4.93 0.014123
4.94 0.00391437
4.95 -0.00683731
4.96 -0.0180952
4.97 -0.029819
4.98 -0.0420152
4.99 -0.0545591
5 -0.0673918
5.01 -0.0804502
5.02 -0.093679
5.03 -0.106983
5.04 -0.120286
5.05 -0.133514
5.06 -0.146575
5.07 -0.159384
5.08 -0.171882
5.09 -0.184002
5.1 -0.195656
5.11 -0.206738
5.12 -0.217247
5.13 -0.227134
5.14 -0.236352
5.15 -0.244757
5.16 -0.252424
5.17 -0.259333
5.18 -0.265469
5.19 -0.270725
5.2 -0.275175
5.21 -0.278849
5.22 -0.28176
5.23 -0.283862
5.24 -0.28519
5.25 -0.285824
5.26 -0.285794
5.27 -0.2851
5.28 -0.283742
5.29 -0.281824
5.3 -0.27938
5.31 -0.276438
5.32 -0.272969
5.33 -0.269078
5.34 -0.264792
5.35 -0.26014
5.36 -0.255105
5.37 -0.249745
5.38 -0.244091
5.39 -0.238162
5.4 -0.231952
5.41 -0.225482
5.42 -0.218784
5.43 -0.211869
5.44 -0.204739
5.45 -0.197394
5.46 -0.189867
5.47 -0.182169
5.48 -0.17431
5.49 -0.166282
5.5 -0.158121
5.51 -0.149842
5.52 -0.141458
5.53 -0.132977
5.54 -0.124427
5.55 -0.115827
5.56 -0.107196
5.57 -0.0985553
5.58 -0.0899276
5.59 -0.0813334
5.6 -0.0727929
5.61 -0.0643305
5.62 -0.0559748
5.63 -0.047736
5.64 -0.0396322
5.65 -0.0316826
5.66 -0.0239296
5.67 -0.0163651
5.68 -0.00900362
5.69 -0.00185885
5.7 0.00502452
5.71 0.0116561
5.72 0.0180311
5.73 0.0241384
5.74 0.0299405
5.75 0.0354311
5.76 0.0406189
5.77 0.0454933
5.78 0.0500259
5.79 0.0541853
5.8 0.0579959
5.81 0.0614469
5.82 0.0645231
5.83 0.0671613
5.84 0.0694074
5.85 0.0712532
5.86 0.0726918
5.87 0.0736625
5.88 0.0742058
5.89 0.0743328
5.9 0.0740461
5.91 0.0733144
5.92 0.07216
5.93 0.070624
5.94 0.0687243
5.95 0.0664657
5.96 0.0638625
5.97 0.0609815
5.98 0.0578568
5.99 0.0545239
6 0.0510088
6.01 0.0473838
6.02 0.0436947
6.03 0.0399883
6.04 0.0363226
6.05 0.0327482
6.06 0.0293099
6.07 0.0260516
6.08 0.0230396
6.09 0.0203117
6.1 0.0178853
6.11 0.0157882
6.12 0.0140634
6.13 0.012748
6.14 0.0118135
6.15 0.0112622
6.16 0.0110964
6.17 0.0113513
6.18 0.0119545
6.19 0.012883
6.2 0.0141085
6.21 0.0156295
6.22 0.0173741
6.23 0.0192957
6.24 0.0213522
6.25 0.0235043
6.26 0.025697
6.27 0.027882
6.28 0.0300176
6.29 0.0320572
6.3 0.033952
6.31 0.0356803
6.32 0.0372144
6.33 0.038527
6.34 0.0395673
6.35 0.0403553
6.36 0.0408835
6.37 0.0411493
6.38 0.0411196
6.39 0.040832
6.4 0.0403033
6.41 0.0395477
6.42 0.0385632
6.43 0.0373798
6.44 0.0360311
6.45 0.0345386
6.46 0.0329183
6.47 0.0311913
6.48 0.0293903
6.49 0.0275347
6.5 0.0256424
6.51 0.02373
6.52 0.0218165
6.53 0.0199146
6.54 0.0180356
6.55 0.016195
6.56 0.0143985
6.57 0.0126528
6.58 0.0109649
6.59 0.00934856
6.6 0.00780964
6.61 0.00635174
6.62 0.0049834
6.63 0.00372088
6.64 0.00258208
6.65 0.00156979
6.66 0.000698579
6.67 -1.1967e-05
6.68 -0.000520273
6.69 -0.000829882
6.7 -0.000920896
6.71 -0.000772915
6.72 -0.000326081
6.73 0.000410955
6.74 0.001452
6.75 0.00281451
6.76 0.00454935
6.77 0.00665726
6.78 0.00912715
6.79 0.0119646
6.8 0.0151941
6.81 0.0188262
6.82 0.0228166
6.83 0.0271535
6.84 0.0318275
6.85 0.0368511
6.86 0.0421539
6.87 0.0477076
6.88 0.0534811
6.89 0.0594619
6.9 0.0655862
6.91 0.0718133
6.92 0.0781054
6.93 0.0844232
6.94 0.0907214
6.95 0.096963
6.96 0.103114
6.97 0.109131
6.98 0.114974
6.99 0.12063
7 0.126074
7.01 0.13128
7.02 0.136199
7.03 0.140847
7.04 0.145212
7.05 0.149285
7.06 0.153011
7.07 0.156422
7.08 0.159516
7.09 0.162287
7.1 0.164695
7.11 0.166749
7.12 0.168462
7.13 0.169825
7.14 0.170807
7.15 0.171387
7.16 0.171587
7.17 0.171398
7.18 0.170797
7.19 0.169725
7.2 0.168225
7.21 0.166287
7.22 0.163902
7.23 0.160994
7.24 0.157617
7.25 0.153776
7.26 0.149473
7.27 0.144666
7.28 0.13939
7.29 0.133685
7.3 0.127571
7.31 0.12105
7.32 0.114148
7.33 0.106936
7.34 0.0994532
7.35 0.0917398
7.36 0.0838318
7.37 0.0758091
7.38 0.0677247
7.39 0.0596331
7.4 0.0516049
7.41 0.0436961
7.42 0.0359601
7.43 0.0284498
7.44 0.0212506
7.45 0.0144029
7.46 0.00793475
7.47 0.00188547
7.48 -0.00367694
7.49 -0.00870425
7.5 -0.0132146
7.51 -0.017188
7.52 -0.0205933
7.53 -0.0233589
7.54 -0.0255528
7.55 -0.0271732
7.56 -0.0282212
7.57 -0.0286186
7.58 -0.0284512
7.59 -0.0277361
7.6 -0.0264854
7.61 -0.0246579
7.62 -0.022301
7.63 -0.0194581
7.64 -0.0161467
7.65 -0.0123555
7.66 -0.00809827
7.67 -0.0034364
7.68 0.00160823
7.69 0.00702206
7.7 0.0128095
7.71 0.018897
7.72 0.0252547
7.73 0.0318507
7.74 0.038675
7.75 0.0456564
7.76 0.0527514
7.77 0.0599154
7.78 0.0670978
7.79 0.0742381
7.8 0.0812823
7.81 0.0881749
7.82 0.0948397
7.83 0.101202
7.84 0.107222
7.85 0.112842
7.86 0.117988
7.87 0.122547
7.88 0.126527
7.89 0.12988
7.9 0.132562
7.91 0.134424
7.92 0.13553
7.93 0.135862
7.94 0.135402
7.95 0.134049
7.96 0.13185
7.97 0.128849
7.98 0.12506
7.99 0.120446
8 0.115028
8.01 0.108905
8.02 0.102115
8.03 0.0946821
8.04 0.0866042
8.05 0.0780094
8.06 0.0689486
8.07 0.059474
8.08 0.0495911
8.09 0.0394107
8.1 0.0289863
8.11 0.0183671
8.12 0.00758875
8.13 -0.00328737
8.14 -0.0142136
8.15 -0.0251517
8.16 -0.0360619
8.17 -0.0469047
8.18 -0.0576537
8.19 -0.0682823
8.2 -0.0787601
8.21 -0.089045
8.22 -0.0991355
8.23 -0.109012
8.24 -0.118656
8.25 -0.128007
8.26 -0.137083
8.27 -0.145867
8.28 -0.154344
8.29 -0.162455
8.3 -0.170205
8.31 -0.17759
8.32 -0.184595
8.33 -0.191175
8.34 -0.197308
8.35 -0.203016
8.36 -0.208289
8.37 -0.213103
8.38 -0.217412
8.39 -0.221269
8.4 -0.224675
8.41 -0.227635
8.42 -0.230089
8.43 -0.232117
8.44 -0.233735
8.45 -0.234961
8.46 -0.235773
8.47 -0.236224
8.48 -0.236355
8.49 -0.236191
8.5 -0.235738
8.51 -0.235025
8.52 -0.234099
8.53 -0.23298
8.54 -0.231685
8.55 -0.230221
8.56 -0.228623
8.57 -0.226901
8.58 -0.225063
8.59 -0.223094
8.6 -0.221013
8.61 -0.218814
8.62 -0.216492
8.63 -0.214019
8.64 -0.211391
8.65 -0.208601
8.66 -0.205635
8.67 -0.20246
8.68 -0.199062
8.69 -0.195443
8.7 -0.191593
8.71 -0.187496
8.72 -0.183127
8.73 -0.178517
8.74 -0.17367
8.75 -0.168593
8.76 -0.163269
8.77 -0.157751
8.78 -0.152059
8.79 -0.146218
8.8 -0.140245
8.81 -0.134182
8.82 -0.128066
8.83 -0.121926
8.84 -0.115796
8.85 -0.109712
8.86 -0.103699
8.87 -0.0977792
8.88 -0.0919791
8.89 -0.0863268
8.9 -0.080818
8.91 -0.0754576
8.92 -0.0702459
8.93 -0.0651997
8.94 -0.0602842
8.95 -0.0554843
8.96 -0.0507809
8.97 -0.0461576
8.98 -0.0415794
8.99 -0.0370167
9 -0.0324421
9.01 -0.027823
9.02 -0.0231284
9.03 -0.0183386
9.04 -0.0134334
9.05 -0.00839006
9.06 -0.00318368
9.07 0.00217558
9.08 0.00768856
9.09 0.0133511
9.1 0.0191731
9.11 0.0251147
9.12 0.0311548
9.13 0.0372679
9.14 0.0434265
9.15 0.0495893
9.16 0.05572
9.17 0.0617827
9.18 0.0677295
9.19 0.0735181
9.2 0.0791236
9.21 0.0845147
9.22 0.0896515
9.23 0.0944857
9.24 0.0990273
9.25 0.103262
9.26 0.107177
9.27 0.11072
9.28 0.113939
9.29 0.116841
9.3 0.119433
9.31 0.121693
9.32 0.123664
9.33 0.125374
9.34 0.126843
9.35 0.128072
9.36 0.129086
9.37 0.12992
9.38 0.130589
9.39 0.131102
9.4 0.131463
9.41 0.131697
9.42 0.131809
9.43 0.1318
9.44 0.131651
9.45 0.131377
9.46 0.13097
9.47 0.130422
9.48 0.129703
9.49 0.128814
9.5 0.12775
9.51 0.1265
9.52 0.125038
9.53 0.123357
9.54 0.121467
9.55 0.119368
9.56 0.11705
9.57 0.114508
9.58 0.111773
9.59 0.108859
9.6 0.105782
9.61 0.102543
9.62 0.099189
9.63 0.0957462
9.64 0.0922413
9.65 0.0887018
9.66 0.0851639
9.67 0.081657
9.68 0.0782089
9.69 0.0748553
9.7 0.0716235
9.71 0.0685282
9.72 0.0655872
9.73 0.0628245
9.74 0.0602651
9.75 0.0578969
9.76 0.055724
9.77 0.053749
9.78 0.0519977
9.79 0.0504353
9.8 0.0490552
9.81 0.0478494
9.82 0.0468292
9.83 0.045968
9.84 0.045252
9.85 0.0446732
9.86 0.0442363
9.87 0.0439335
9.88 0.0437531
9.89 0.0436952
9.9 0.0437681
9.91 0.0439854
9.92 0.0443402
9.93 0.0448414
9.94 0.0455006
9.95 0.0463546
9.96 0.0473909
9.97 0.0486209
9.98 0.050055
9.99 0.0517307
10 0.0536342
10.01 0.0557623
10.02 0.0581151
10.03 0.0607083
10.04 0.0635274
10.05 0.0665436
10.06 0.0697395
10.07 0.0730996
10.08 0.0765998
10.09 0.0801921
10.1 0.0838416
10.11 0.0875102
10.12 0.091148
10.13 0.0947111
10.14 0.0981563
10.15 0.10144
10.16 0.104488
10.17 0.107273
10.18 0.109764
10.19 0.111925
10.2 0.113688
10.21 0.11503
10.22 0.115954
10.23 0.116442
10.24 0.11646
10.25 0.115975
10.26 0.115035
10.27 0.113645
10.28 0.11181
10.29 0.109489
10.3 0.106764
10.31 0.103658
10.32 0.100195
10.33 0.0963622
10.34 0.0922274
10.35 0.0878289
10.36 0.0831966
10.37 0.0783443
10.38 0.0733119
10.39 0.0681407
10.4 0.062857
10.41 0.0574824
10.42 0.0520408
10.43 0.0465613
10.44 0.0410627
10.45 0.0355619
10.46 0.0300779
10.47 0.0246232
10.48 0.019209
10.49 0.0138453
10.5 0.00855036
10.51 0.00332648
10.52 -0.00182077
10.53 -0.00688484
10.54 -0.0118505
10.55 -0.0167134
10.56 -0.0214738
10.57 -0.0261263
10.58 -0.0306589
10.59 -0.0350596
10.6 -0.0393357
10.61 -0.0434826
10.62 -0.0474939
10.63 -0.0513481
10.64 -0.0550615
10.65 -0.0586322
10.66 -0.0620587
10.67 -0.0653209
10.68 -0.0684355
10.69 -0.0714074
10.7 -0.0742386
10.71 -0.0769191
10.72 -0.0794574
10.73 -0.0818662
10.74 -0.0841496
10.75 -0.0863053
10.76 -0.0883326
10.77 -0.0902475
10.78 -0.0920529
10.79 -0.0937495
10.8 -0.0953254
10.81 -0.096796
10.82 -0.0981602
10.83 -0.0994161
10.84 -0.100545
10.85 -0.101553
10.86 -0.10244
10.87 -0.103198
10.88 -0.103806
10.89 -0.104263
10.9 -0.104568
10.91 -0.104715
10.92 -0.10469
10.93 -0.104478
10.94 -0.104092
10.95 -0.103531
10.96 -0.102791
10.97 -0.101853
10.98 -0.100746
10.99 -0.0994758
11 -0.0980511
11.01 -0.0964639
11.02 -0.0947457
11.03 -0.0929141
11.04 -0.0909851
11.05 -0.0889701
11.06 -0.0868939
11.07 -0.08478
11.08 -0.0826475
11.09 -0.0805165
11.1 -0.0784094
11.11 -0.0763426
11.12 -0.074332
11.13 -0.0723933
11.14 -0.0705505
11.15 -0.0688029
11.16 -0.0671581
11.17 -0.0656215
11.18 -0.0642121
11.19 -0.0629172
11.2 -0.0617331
11.21 -0.0606565
11.22 -0.0596924
11.23 -0.0588287
11.24 -0.0580521
11.25 -0.0573543
11.26 -0.0567306
11.27 -0.0561727
11.28 -0.0556655
11.29 -0.0552011
11.3 -0.0547728
11.31 -0.0543766
11.32 -0.0540027
11.33 -0.053647
11.34 -0.0533068
11.35 -0.0529818
11.36 -0.0526697
11.37 -0.0523708
11.38 -0.0520862
11.39 -0.0518196
11.4 -0.0515732
11.41 -0.0513484
11.42 -0.0511478
11.43 -0.0509757
11.44 -0.0508354
11.45 -0.0507256
11.46 -0.0506471
11.47 -0.0506003
11.48 -0.0505876
11.49 -0.0506027
11.5 -0.0506429
11.51 -0.0507043
11.52 -0.0507845
11.53 -0.0508755
11.54 -0.0509715
11.55 -0.0510665
11.56 -0.051153
11.57 -0.0512242
11.58 -0.0512746
11.59 -0.0512986
11.6 -0.0512884
11.61 -0.0512374
11.62 -0.0511448
11.63 -0.0510071
11.64 -0.0508205
11.65 -0.0505771
11.66 -0.0502823
11.67 -0.0499353
11.68 -0.049536
11.69 -0.049077
11.7 -0.0485657
11.71 -0.0480038
11.72 -0.047392
11.73 -0.0467262
11.74 -0.0460098
11.75 -0.0452461
11.76 -0.0444356
11.77 -0.0435758
11.78 -0.0426654
11.79 -0.041709
11.8 -0.0407066
11.81 -0.039657
11.82 -0.0385555
11.83 -0.0374088
11.84 -0.0362176
11.85 -0.0349831
11.86 -0.0337012
11.87 -0.0323802
11.88 -0.0310236
11.89 -0.0296351
11.9 -0.0282167
11.91 -0.0267755
11.92 -0.0253185
11.93 -0.0238517
11.94 -0.0223814
11.95 -0.020915
11.96 -0.0194589
11.97 -0.0180188
11.98 -0.0166007
11.99 -0.0152125
12 -0.0138544
12.01 -0.0125288
12.02 -0.0112367
12.03 -0.00998251
12.04 -0.00875961
12.05 -0.00756417
12.06 -0.00639149
12.07 -0.00523671
