[DEFAULT]

version = diffpy.pdfgetx-2.2.1

# input and output specifications
dataformat = twotheta
inputfile = Synthetic_CSH_CSH_pdf_ramp_200_01_normalized.chi
backgroundfiles = quartz_030degC_normalized.chi
outputtype = gr

# PDF calculation setup
mode = xray
wavelength = 0.2113
twothetazero = 0
composition = CaO SiO2
bgscales = 1.0
rpoly = 0.9
qmaxinst = 23.7031
qmin = 0.5
qmax = 20
rmin = 0
rmax = 60
rstep = 0.01

# End of config --------------------------------------------------------------

#### start data
#S 1
#L r(Å)  G(Å$^{-2}$)
0 0
0.01 -0.00175029
0.02 -0.00344834
0.03 -0.00504932
0.04 -0.00651036
0.05 -0.00776521
0.06 -0.00878732
0.07 -0.00955404
0.08 -0.0100408
0.09 -0.0102042
0.1 -0.0100325
0.11 -0.0095481
0.12 -0.00875757
0.13 -0.00766448
0.14 -0.00627623
0.15 -0.0046605
0.16 -0.0028583
0.17 -0.000917399
0.18 0.00111196
0.19 0.00314938
0.2 0.00513093
0.21 0.00699084
0.22 0.00863212
0.23 0.00999681
0.24 0.0110333
0.25 0.0116884
0.26 0.0118787
0.27 0.0115662
0.28 0.0107652
0.29 0.00946999
0.3 0.0076696
0.31 0.00536112
0.32 0.0026469
0.33 -0.000411558
0.34 -0.00373803
0.35 -0.00725199
0.36 -0.0108072
0.37 -0.0142858
0.38 -0.0175625
0.39 -0.0204497
0.4 -0.0228244
0.41 -0.0245715
0.42 -0.0255691
0.43 -0.0256247
0.44 -0.0246303
0.45 -0.0225787
0.46 -0.0194159
0.47 -0.0150603
0.48 -0.00942787
0.49 -0.00268189
0.5 0.00512013
0.51 0.0138975
0.52 0.0236476
0.53 0.0340798
0.54 0.0450296
0.55 0.0563143
0.56 0.0677275
0.57 0.0790162
0.58 0.089963
0.59 0.100355
0.6 0.109902
0.61 0.11838
0.62 0.125674
0.63 0.131629
0.64 0.136044
0.65 0.138697
0.66 0.139698
0.67 0.139019
0.68 0.136652
0.69 0.132402
0.7 0.126604
0.71 0.119361
0.72 0.110802
0.73 0.100954
0.74 0.0901185
0.75 0.078517
0.76 0.0663368
0.77 0.0537492
0.78 0.0409777
0.79 0.0282181
0.8 0.0156258
0.81 0.00335775
0.82 -0.00842598
0.83 -0.0196798
0.84 -0.0303454
0.85 -0.0403844
0.86 -0.0496991
0.87 -0.0584065
0.88 -0.0665476
0.89 -0.0741795
0.9 -0.0813257
0.91 -0.0881192
0.92 -0.0946558
0.93 -0.101015
0.94 -0.107269
0.95 -0.11349
0.96 -0.11973
0.97 -0.126013
0.98 -0.132349
0.99 -0.138718
1 -0.145073
1.01 -0.151353
1.02 -0.157476
1.03 -0.163295
1.04 -0.16873
1.05 -0.173669
1.06 -0.178
1.07 -0.181509
1.08 -0.184159
1.09 -0.1859
1.1 -0.186677
1.11 -0.186378
1.12 -0.185031
1.13 -0.182755
1.14 -0.179629
1.15 -0.175738
1.16 -0.171226
1.17 -0.166355
1.18 -0.161332
1.19 -0.156385
1.2 -0.151835
1.21 -0.147901
1.22 -0.144818
1.23 -0.142803
1.24 -0.14224
1.25 -0.143176
1.26 -0.145684
1.27 -0.149821
1.28 -0.155741
1.29 -0.163329
1.3 -0.172341
1.31 -0.182583
1.32 -0.193835
1.33 -0.205758
1.34 -0.217877
1.35 -0.22978
1.36 -0.241006
1.37 -0.25086
1.38 -0.258987
1.39 -0.264923
1.4 -0.26823
1.41 -0.268054
1.42 -0.264325
1.43 -0.25686
1.44 -0.245466
1.45 -0.229659
1.46 -0.209549
1.47 -0.185521
1.48 -0.157794
1.49 -0.126523
1.5 -0.0920562
1.51 -0.0552734
1.52 -0.0167801
1.53 0.0227569
1.54 0.0625318
1.55 0.101653
1.56 0.13934
1.57 0.17482
1.58 0.206845
1.59 0.234938
1.6 0.258551
1.61 0.277135
1.62 0.289684
1.63 0.295969
1.64 0.296164
1.65 0.290202
1.66 0.277821
1.67 0.258969
1.68 0.234637
1.69 0.205288
1.7 0.171432
1.71 0.133356
1.72 0.0924353
1.73 0.0494715
1.74 0.00529874
1.75 -0.0391708
1.76 -0.0829483
1.77 -0.125235
1.78 -0.165293
1.79 -0.202117
1.8 -0.235133
1.81 -0.264091
1.82 -0.288662
1.83 -0.308368
1.84 -0.322907
1.85 -0.332833
1.86 -0.338337
1.87 -0.339656
1.88 -0.336796
1.89 -0.330842
1.9 -0.322362
1.91 -0.311971
1.92 -0.300226
1.93 -0.288008
1.94 -0.275969
1.95 -0.264695
1.96 -0.254894
1.97 -0.247047
1.98 -0.24141
1.99 -0.238228
2 -0.23779
2.01 -0.240224
2.02 -0.245141
2.03 -0.252313
2.04 -0.261438
2.05 -0.272198
2.06 -0.283811
2.07 -0.295698
2.08 -0.307236
2.09 -0.317552
2.1 -0.326028
2.11 -0.332062
2.12 -0.335071
2.13 -0.33413
2.14 -0.328859
2.15 -0.319151
2.16 -0.304777
2.17 -0.285337
2.18 -0.260656
2.19 -0.231375
2.2 -0.197768
2.21 -0.160148
2.22 -0.118683
2.23 -0.0745119
2.24 -0.0283097
2.25 0.0191942
2.26 0.0671944
2.27 0.114731
2.28 0.16101
2.29 0.205274
2.3 0.246456
2.31 0.283908
2.32 0.317241
2.33 0.345988
2.34 0.369459
2.35 0.387165
2.36 0.399491
2.37 0.406437
2.38 0.407999
2.39 0.403846
2.4 0.395041
2.41 0.381999
2.42 0.365206
2.43 0.344826
2.44 0.321919
2.45 0.297145
2.46 0.27111
2.47 0.244396
2.48 0.21769
2.49 0.191527
2.5 0.166354
2.51 0.14266
2.52 0.120856
2.53 0.101005
2.54 0.0832316
2.55 0.0676288
2.56 0.05439
2.57 0.0431014
2.58 0.0335821
2.59 0.025601
2.6 0.0190261
2.61 0.0133537
2.62 0.00824562
2.63 0.00338433
2.64 -0.00157374
2.65 -0.00695354
2.66 -0.0129875
2.67 -0.019872
2.68 -0.0278246
2.69 -0.0369811
2.7 -0.0472603
2.71 -0.0586233
2.72 -0.0709966
2.73 -0.0842961
2.74 -0.0981857
2.75 -0.112423
2.76 -0.126738
2.77 -0.140764
2.78 -0.15419
2.79 -0.166721
2.8 -0.178072
2.81 -0.1878
2.82 -0.195712
2.83 -0.201708
2.84 -0.205653
2.85 -0.207315
2.86 -0.206601
2.87 -0.203751
2.88 -0.198854
2.89 -0.192002
2.9 -0.183232
2.91 -0.173028
2.92 -0.161658
2.93 -0.14941
2.94 -0.136552
2.95 -0.123512
2.96 -0.110603
2.97 -0.0981187
2.98 -0.0864352
2.99 -0.0757955
3 -0.066359
3.01 -0.0582848
3.02 -0.0517936
3.03 -0.0470014
3.04 -0.0437782
3.05 -0.0420894
3.06 -0.0418951
3.07 -0.0431954
3.08 -0.0456407
3.09 -0.0490453
3.1 -0.0532032
3.11 -0.0579397
3.12 -0.0629261
3.13 -0.0679308
3.14 -0.0727363
3.15 -0.0770748
3.16 -0.080758
3.17 -0.0836568
3.18 -0.0856471
3.19 -0.0865606
3.2 -0.0863034
3.21 -0.0849466
3.22 -0.0824974
3.23 -0.0789611
3.24 -0.074308
3.25 -0.0687604
3.26 -0.0624181
3.27 -0.055391
3.28 -0.0477269
3.29 -0.0396351
3.3 -0.0312314
3.31 -0.0226168
3.32 -0.0138744
3.33 -0.00509241
3.34 0.00367531
3.35 0.0123996
3.36 0.0210678
3.37 0.0296941
3.38 0.0383163
3.39 0.0469822
3.4 0.0557572
3.41 0.06474
3.42 0.07399
3.43 0.0835818
3.44 0.0935858
3.45 0.104144
3.46 0.115244
3.47 0.126911
3.48 0.139157
3.49 0.152034
3.5 0.165467
3.51 0.179368
3.52 0.193655
3.53 0.208236
3.54 0.222964
3.55 0.237673
3.56 0.252205
3.57 0.266379
3.58 0.279944
3.59 0.292779
3.6 0.304717
3.61 0.315599
3.62 0.325076
3.63 0.333181
3.64 0.33982
3.65 0.344911
3.66 0.348212
3.67 0.349795
3.68 0.349741
3.69 0.348077
3.7 0.344747
3.71 0.339825
3.72 0.333548
3.73 0.326035
3.74 0.317387
3.75 0.307687
3.76 0.297221
3.77 0.286146
3.78 0.274613
3.79 0.262749
3.8 0.250756
3.81 0.238764
3.82 0.226889
3.83 0.215269
3.84 0.203984
3.85 0.193088
3.86 0.18263
3.87 0.172679
3.88 0.16326
3.89 0.154331
3.9 0.145882
3.91 0.137907
3.92 0.130413
3.93 0.123307
3.94 0.116553
3.95 0.110114
3.96 0.103993
3.97 0.0981111
3.98 0.0924406
3.99 0.0869606
4 0.081676
4.01 0.0765667
4.02 0.0716265
4.03 0.0668636
4.04 0.0623083
4.05 0.0579863
4.06 0.0539065
4.07 0.0500968
4.08 0.0465991
4.09 0.043478
4.1 0.0407252
4.11 0.0383684
4.12 0.0364326
4.13 0.0350117
4.14 0.034056
4.15 0.0335757
4.16 0.0335773
4.17 0.0341194
4.18 0.0351618
4.19 0.0366752
4.2 0.0386476
4.21 0.0410963
4.22 0.0440006
4.23 0.0473029
4.24 0.0509801
4.25 0.0550201
4.26 0.0594199
4.27 0.0641112
4.28 0.0690666
4.29 0.0742583
4.3 0.0796852
4.31 0.0852805
4.32 0.0910112
4.33 0.0968424
4.34 0.102739
4.35 0.108647
4.36 0.114519
4.37 0.120305
4.38 0.125934
4.39 0.131334
4.4 0.136453
4.41 0.141225
4.42 0.145557
4.43 0.149323
4.44 0.152503
4.45 0.155021
4.46 0.156805
4.47 0.157649
4.48 0.15761
4.49 0.156635
4.5 0.154677
4.51 0.151576
4.52 0.147389
4.53 0.142151
4.54 0.135869
4.55 0.128486
4.56 0.120052
4.57 0.110705
4.58 0.100517
4.59 0.0895444
4.6 0.077854
4.61 0.0656434
4.62 0.053031
4.63 0.0401413
4.64 0.0270994
4.65 0.0140726
4.66 0.00118727
4.67 -0.0114353
4.68 -0.0236217
4.69 -0.0352856
4.7 -0.0463536
4.71 -0.0567513
4.72 -0.0663559
4.73 -0.0751229
4.74 -0.08309
4.75 -0.0902544
4.76 -0.0965975
4.77 -0.102101
4.78 -0.106906
4.79 -0.111074
4.8 -0.114678
4.81 -0.117739
4.82 -0.120432
4.83 -0.122851
4.84 -0.125088
4.85 -0.127237
4.86 -0.129407
4.87 -0.13168
4.88 -0.134127
4.89 -0.136836
4.9 -0.139862
4.91 -0.14322
4.92 -0.146932
4.93 -0.151023
4.94 -0.155512
4.95 -0.160338
4.96 -0.16547
4.97 -0.170871
4.98 -0.176519
4.99 -0.182319
5 -0.188212
5.01 -0.194137
5.02 -0.200021
5.03 -0.205798
5.04 -0.211412
5.05 -0.21681
5.06 -0.221919
5.07 -0.226692
5.08 -0.231118
5.09 -0.23517
5.1 -0.23881
5.11 -0.241996
5.12 -0.244767
5.13 -0.247123
5.14 -0.249063
5.15 -0.250537
5.16 -0.251613
5.17 -0.252301
5.18 -0.252608
5.19 -0.252493
5.2 -0.251993
5.21 -0.251119
5.22 -0.249868
5.23 -0.248194
5.24 -0.246087
5.25 -0.243558
5.26 -0.240585
5.27 -0.237121
5.28 -0.233103
5.29 -0.22856
5.3 -0.223467
5.31 -0.217795
5.32 -0.211437
5.33 -0.204469
5.34 -0.196882
5.35 -0.188676
5.36 -0.179784
5.37 -0.170283
5.38 -0.160222
5.39 -0.149638
5.4 -0.138542
5.41 -0.12701
5.42 -0.115143
5.43 -0.103015
5.44 -0.0907038
5.45 -0.0783077
5.46 -0.0659366
5.47 -0.0536847
5.48 -0.0416505
5.49 -0.0299875
5.5 -0.0187505
5.51 -0.00802667
5.52 0.0021027
5.53 0.0114673
5.54 0.0200596
5.55 0.0278459
5.56 0.034782
5.57 0.0407526
5.58 0.0457507
5.59 0.049831
5.6 0.0529967
5.61 0.055218
5.62 0.0564738
5.63 0.0568999
5.64 0.0565423
5.65 0.0554479
5.66 0.0535961
5.67 0.051162
5.68 0.0482185
5.69 0.0448417
5.7 0.0410741
5.71 0.037043
5.72 0.0328373
5.73 0.0285345
5.74 0.0242148
5.75 0.0199634
5.76 0.0158469
5.77 0.011926
5.78 0.00827152
5.79 0.00495665
5.8 0.00199208
5.81 -0.000590464
5.82 -0.00276166
5.83 -0.00444685
5.84 -0.00570142
5.85 -0.00652785
5.86 -0.00693636
5.87 -0.00689485
5.88 -0.00647573
5.89 -0.00572359
5.9 -0.00467808
5.91 -0.00336572
5.92 -0.00185253
5.93 -0.000208328
5.94 0.0015109
5.95 0.00324561
5.96 0.00492587
5.97 0.00649573
5.98 0.0079024
5.99 0.0090932
6 0.00998379
6.01 0.0105712
6.02 0.010827
6.03 0.0107307
6.04 0.0102214
6.05 0.00933856
6.06 0.00810236
6.07 0.00653364
6.08 0.0046384
6.09 0.00247529
6.1 0.000115844
6.11 -0.00237974
6.12 -0.00494358
6.13 -0.00748744
6.14 -0.00992664
6.15 -0.0121795
6.16 -0.0141575
6.17 -0.0157194
6.18 -0.0168284
6.19 -0.0174096
6.2 -0.0173942
6.21 -0.0166236
6.22 -0.0151134
6.23 -0.0128399
6.24 -0.00977438
6.25 -0.00582117
6.26 -0.00100301
6.27 0.00461716
6.28 0.0110163
6.29 0.0181993
6.3 0.0261427
6.31 0.034712
6.32 0.0438398
6.33 0.0534587
6.34 0.0635251
6.35 0.0738867
6.36 0.0844555
6.37 0.0951426
6.38 0.105852
6.39 0.116481
6.4 0.12695
6.41 0.13718
6.42 0.147064
6.43 0.156537
6.44 0.165563
6.45 0.174095
6.46 0.182056
6.47 0.189384
6.48 0.196107
6.49 0.202208
6.5 0.20766
6.51 0.212375
6.52 0.216439
6.53 0.219853
6.54 0.222616
6.55 0.224644
6.56 0.226016
6.57 0.226751
6.58 0.226853
6.59 0.226262
6.6 0.225007
6.61 0.223128
6.62 0.220628
6.63 0.217473
6.64 0.21364
6.65 0.209198
6.66 0.204153
6.67 0.198504
6.68 0.192196
6.69 0.18533
6.7 0.177931
6.71 0.170027
6.72 0.16159
6.73 0.152724
6.74 0.143484
6.75 0.133924
6.76 0.124079
6.77 0.114035
6.78 0.103873
6.79 0.0936631
6.8 0.0834815
6.81 0.0734176
6.82 0.0635387
6.83 0.0539139
6.84 0.0446181
6.85 0.0357683
6.86 0.0273736
6.87 0.019484
6.88 0.0121431
6.89 0.00547484
6.9 -0.000561914
6.91 -0.00595838
6.92 -0.0107023
6.93 -0.0147213
6.94 -0.0180475
6.95 -0.0207282
6.96 -0.0227775
6.97 -0.0241769
6.98 -0.0249324
6.99 -0.0251282
7 -0.0247908
7.01 -0.0239361
7.02 -0.022541
7.03 -0.0206998
7.04 -0.0184371
7.05 -0.0157759
7.06 -0.0126866
7.07 -0.00923902
7.08 -0.00545733
7.09 -0.00135854
7.1 0.00307025
7.11 0.00779494
7.12 0.012781
7.13 0.0180087
7.14 0.0234687
7.15 0.0291362
7.16 0.0349606
7.17 0.0409073
7.18 0.046938
7.19 0.0530049
7.2 0.0590474
7.21 0.0650109
7.22 0.0708364
7.23 0.0764229
7.24 0.0817226
7.25 0.0866719
7.26 0.0912041
7.27 0.0951955
7.28 0.0985975
7.29 0.10138
7.3 0.10349
7.31 0.104834
7.32 0.105349
7.33 0.105079
7.34 0.10401
7.35 0.102119
7.36 0.0993319
7.37 0.0957798
7.38 0.0914975
7.39 0.0865301
7.4 0.0808495
7.41 0.0746137
7.42 0.0679048
7.43 0.0608021
7.44 0.0533655
7.45 0.0457132
7.46 0.0379475
7.47 0.0301538
7.48 0.0224239
7.49 0.0148532
7.5 0.00750444
7.51 0.000439576
7.52 -0.00627713
7.53 -0.0125554
7.54 -0.0184102
7.55 -0.0238202
7.56 -0.0287736
7.57 -0.033201
7.58 -0.0371741
7.59 -0.0407155
7.6 -0.0438485
7.61 -0.0465651
7.62 -0.0489265
7.63 -0.0509894
7.64 -0.0527921
7.65 -0.0543609
7.66 -0.0557364
7.67 -0.0569724
7.68 -0.0581005
7.69 -0.0591462
7.7 -0.0601301
7.71 -0.0610784
7.72 -0.0620029
7.73 -0.0629106
7.74 -0.0638019
7.75 -0.0646764
7.76 -0.0655286
7.77 -0.0663501
7.78 -0.0671254
7.79 -0.0678442
7.8 -0.0684976
7.81 -0.0690757
7.82 -0.0695634
7.83 -0.0699518
7.84 -0.0702455
7.85 -0.0704445
7.86 -0.0705491
7.87 -0.0705585
7.88 -0.0704945
7.89 -0.0703696
7.9 -0.0701985
7.91 -0.0699957
7.92 -0.0697854
7.93 -0.0695859
7.94 -0.069415
7.95 -0.0692964
7.96 -0.069245
7.97 -0.0692714
7.98 -0.069386
7.99 -0.069604
8 -0.069933
8.01 -0.070366
8.02 -0.0709022
8.03 -0.0715416
8.04 -0.0722878
8.05 -0.0731217
8.06 -0.0740365
8.07 -0.0750256
8.08 -0.0760927
8.09 -0.0772231
8.1 -0.0784141
8.11 -0.0796661
8.12 -0.0809901
8.13 -0.0823894
8.14 -0.0838709
8.15 -0.0854474
8.16 -0.0871435
8.17 -0.0889818
8.18 -0.0909713
8.19 -0.0931311
8.2 -0.095487
8.21 -0.0980778
8.22 -0.100892
8.23 -0.103941
8.24 -0.107228
8.25 -0.110789
8.26 -0.114578
8.27 -0.118577
8.28 -0.122762
8.29 -0.127114
8.3 -0.131574
8.31 -0.136084
8.32 -0.14059
8.33 -0.145016
8.34 -0.14928
8.35 -0.153315
8.36 -0.157048
8.37 -0.160387
8.38 -0.163204
8.39 -0.165479
8.4 -0.167147
8.41 -0.168149
8.42 -0.168314
8.43 -0.167707
8.44 -0.166301
8.45 -0.164079
8.46 -0.160939
8.47 -0.15695
8.48 -0.152168
8.49 -0.146627
8.5 -0.140318
8.51 -0.133301
8.52 -0.125699
8.53 -0.117582
8.54 -0.109014
8.55 -0.100058
8.56 -0.0908468
8.57 -0.0814634
8.58 -0.0719887
8.59 -0.0625104
8.6 -0.0531121
8.61 -0.043861
8.62 -0.0348178
8.63 -0.0260733
8.64 -0.0176605
8.65 -0.0096051
8.66 -0.00193737
8.67 0.00528553
8.68 0.0120419
8.69 0.0183552
8.7 0.024219
8.71 0.0296125
8.72 0.0344972
8.73 0.0389286
8.74 0.0429075
8.75 0.0464338
8.76 0.0494336
8.77 0.0519749
8.78 0.0540525
8.79 0.0556589
8.8 0.056726
8.81 0.0572789
8.82 0.0573254
8.83 0.0568542
8.84 0.0558124
8.85 0.0541902
8.86 0.0520269
8.87 0.0493238
8.88 0.0460669
8.89 0.042232
8.9 0.0379063
8.91 0.0331218
8.92 0.0279184
8.93 0.0222951
8.94 0.0163769
8.95 0.0102317
8.96 0.00393409
8.97 -0.00243335
8.98 -0.00876523
8.99 -0.0149701
9 -0.0209581
9.01 -0.0266075
9.02 -0.0318157
9.03 -0.0365285
9.04 -0.0406731
9.05 -0.0441566
9.06 -0.0468646
9.07 -0.0488355
9.08 -0.0500441
9.09 -0.0504772
9.1 -0.0500185
9.11 -0.0488118
9.12 -0.046891
9.13 -0.0443031
9.14 -0.0410403
9.15 -0.0372357
9.16 -0.0329917
9.17 -0.0283944
9.18 -0.0235207
9.19 -0.0184835
9.2 -0.0133941
9.21 -0.00834241
9.22 -0.00342275
9.23 0.00125757
9.24 0.00564687
9.25 0.00968613
9.26 0.0133251
9.27 0.0164549
9.28 0.0191175
9.29 0.0213015
9.3 0.0230066
9.31 0.0241866
9.32 0.0249066
9.33 0.0252129
9.34 0.0251413
9.35 0.0247078
9.36 0.0239683
9.37 0.0229939
9.38 0.0218301
9.39 0.0205169
9.4 0.0190953
9.41 0.0176173
9.42 0.0161146
9.43 0.0146141
9.44 0.0131431
9.45 0.0117145
9.46 0.0103379
9.47 0.00901831
9.48 0.00776496
9.49 0.00657116
9.5 0.00543234
9.51 0.00434597
9.52 0.00331505
9.53 0.00234052
9.54 0.0014238
9.55 0.000574333
9.56 -0.000188862
9.57 -0.000834809
9.58 -0.00134643
9.59 -0.00169177
9.6 -0.00183251
9.61 -0.00168489
9.62 -0.00123693
9.63 -0.000442399
9.64 0.000745121
9.65 0.00243188
9.66 0.00462445
9.67 0.00734387
9.68 0.0106195
9.69 0.0145241
9.7 0.0190617
9.71 0.0241877
9.72 0.0298886
9.73 0.0361629
9.74 0.042997
9.75 0.0502761
9.76 0.0579352
9.77 0.0659006
9.78 0.0741045
9.79 0.0824092
9.8 0.090715
9.81 0.0989188
9.82 0.106876
9.83 0.114489
9.84 0.121666
9.85 0.128315
9.86 0.134289
9.87 0.139513
9.88 0.143972
9.89 0.14762
9.9 0.150385
9.91 0.152195
9.92 0.153147
9.93 0.153259
9.94 0.152554
9.95 0.15098
9.96 0.148715
9.97 0.145828
9.98 0.142398
9.99 0.138459
10 0.134156
10.01 0.129592
10.02 0.124853
10.03 0.120023
10.04 0.115196
10.05 0.110449
10.06 0.105841
10.07 0.101437
10.08 0.0972963
10.09 0.0934245
10.1 0.0898369
10.11 0.0865415
10.12 0.0835699
10.13 0.0808613
10.14 0.07839
10.15 0.0761237
10.16 0.074041
10.17 0.0720765
10.18 0.0701811
10.19 0.0683101
10.2 0.0664139
10.21 0.0644442
10.22 0.0623666
10.23 0.0601494
10.24 0.0577564
10.25 0.0551546
10.26 0.0523504
10.27 0.0493383
10.28 0.0461163
10.29 0.0426648
10.3 0.039027
10.31 0.0352196
10.32 0.0312622
10.33 0.027163
10.34 0.0229625
10.35 0.0186877
10.36 0.0143616
10.37 0.0100051
10.38 0.00564146
10.39 0.00128838
10.4 -0.00304125
10.41 -0.00733546
10.42 -0.0115848
10.43 -0.0157903
10.44 -0.0199516
10.45 -0.02407
10.46 -0.0281442
10.47 -0.0321843
10.48 -0.0361944
10.49 -0.0401777
10.5 -0.0441326
10.51 -0.0480612
10.52 -0.0519604
10.53 -0.0558235
10.54 -0.0596351
10.55 -0.0633801
10.56 -0.0670442
10.57 -0.0706071
10.58 -0.0740377
10.59 -0.0772988
10.6 -0.0803777
10.61 -0.0832478
10.62 -0.0858789
10.63 -0.0882088
10.64 -0.0902511
10.65 -0.0919871
10.66 -0.0934023
10.67 -0.0944412
10.68 -0.0951361
10.69 -0.0954975
10.7 -0.0955328
10.71 -0.0952268
10.72 -0.0946126
10.73 -0.0937347
10.74 -0.0926218
10.75 -0.0912965
10.76 -0.0897928
10.77 -0.0881672
10.78 -0.0864566
10.79 -0.084697
10.8 -0.0829262
10.81 -0.0811808
10.82 -0.0794876
10.83 -0.0778692
10.84 -0.0763576
10.85 -0.0749547
10.86 -0.0736629
10.87 -0.0724813
10.88 -0.0714123
10.89 -0.0704378
10.9 -0.0695337
10.91 -0.0686792
10.92 -0.0678503
10.93 -0.0670162
10.94 -0.0661484
10.95 -0.0652208
10.96 -0.0642069
10.97 -0.0630685
10.98 -0.0618008
10.99 -0.0603907
11 -0.0588301
11.01 -0.0570948
11.02 -0.0552074
11.03 -0.0531812
11.04 -0.0510317
11.05 -0.0487718
11.06 -0.046436
11.07 -0.0440606
11.08 -0.0416783
11.09 -0.039328
11.1 -0.0370548
11.11 -0.0348905
11.12 -0.0328689
11.13 -0.0310255
11.14 -0.0294167
11.15 -0.0280394
11.16 -0.0269109
11.17 -0.0260433
11.18 -0.0254802
11.19 -0.0251879
11.2 -0.0251535
11.21 -0.0253637
11.22 -0.02582
11.23 -0.0264845
11.24 -0.0273156
11.25 -0.0282816
11.26 -0.0293528
11.27 -0.0304899
11.28 -0.0316485
11.29 -0.0327943
11.3 -0.0338933
11.31 -0.0349019
11.32 -0.0358018
11.33 -0.0365713
11.34 -0.0371927
11.35 -0.0376284
11.36 -0.0378898
11.37 -0.0379771
11.38 -0.0378918
11.39 -0.0376228
11.4 -0.0371886
11.41 -0.0366113
11.42 -0.0359053
11.43 -0.0350806
11.44 -0.0341542
11.45 -0.0331534
11.46 -0.0320945
11.47 -0.0309923
11.48 -0.0298591
11.49 -0.0287116
11.5 -0.0275588
11.51 -0.0264078
11.52 -0.0252647
11.53 -0.0241313
11.54 -0.023008
11.55 -0.0218937
11.56 -0.0207872
11.57 -0.0196852
11.58 -0.0185849
11.59 -0.0174846
11.6 -0.0163834
11.61 -0.0152825
11.62 -0.0141853
11.63 -0.013097
11.64 -0.0120261
11.65 -0.0109878
11.66 -0.00999286
11.67 -0.00905667
11.68 -0.00819661
11.69 -0.00744836
11.7 -0.00682236
11.71 -0.00633789
11.72 -0.00601557
11.73 -0.00589655
11.74 -0.00599293
11.75 -0.00631045
11.76 -0.00686233
11.77 -0.00767525
11.78 -0.00876333
11.79 -0.0101047
11.8 -0.0116963
11.81 -0.0135372
11.82 -0.0156381
11.83 -0.0179498
11.84 -0.0204516
11.85 -0.023119
11.86 -0.0259408
11.87 -0.0288639
11.88 -0.0318541
11.89 -0.0348776
11.9 -0.0378959
11.91 -0.0408685
11.92 -0.0437622
11.93 -0.0465445
11.94 -0.0491727
