[DEFAULT]

version = diffpy.pdfgetx-2.2.1

# input and output specifications
dataformat = twotheta
inputfile = Synthetic_CSH_CSH_pdf_ramp_1000_02_normalized.chi
backgroundfiles = quartz_030degC_normalized.chi
outputtype = gr

# PDF calculation setup
mode = xray
wavelength = 0.2113
twothetazero = 0
composition = CaO SiO2
bgscales = 1.0
rpoly = 0.9
qmaxinst = 23.7031
qmin = 0.5
qmax = 20
rmin = 0
rmax = 60
rstep = 0.01

# End of config --------------------------------------------------------------

#### start data
#S 1
#L r(Å)  G(Å$^{-2}$)
0 0
0.01 -0.000352526
0.02 -0.000702684
0.03 -0.00104801
0.04 -0.00138536
0.05 -0.00170866
0.06 -0.00201269
0.07 -0.00229132
0.08 -0.00253683
0.09 -0.00273641
0.1 -0.00287886
0.11 -0.0029581
0.12 -0.00296498
0.13 -0.00288767
0.14 -0.00271188
0.15 -0.00244375
0.16 -0.00208258
0.17 -0.00163094
0.18 -0.00108393
0.19 -0.00046792
0.2 0.000200595
0.21 0.000900919
0.22 0.00160578
0.23 0.00228145
0.24 0.00289625
0.25 0.0034171
0.26 0.00379716
0.27 0.0039981
0.28 0.00400098
0.29 0.00378051
0.3 0.00330594
0.31 0.00254437
0.32 0.00152326
0.33 0.000250636
0.34 -0.00125572
0.35 -0.00299127
0.36 -0.0048758
0.37 -0.00685377
0.38 -0.00885925
0.39 -0.0108003
0.4 -0.0125831
0.41 -0.014118
0.42 -0.0153097
0.43 -0.0160158
0.44 -0.0161257
0.45 -0.015585
0.46 -0.014312
0.47 -0.012197
0.48 -0.00911263
0.49 -0.00511738
0.5 -0.000193475
0.51 0.00566085
0.52 0.0125505
0.53 0.0202777
0.54 0.0287659
0.55 0.0379166
0.56 0.0476605
0.57 0.0577848
0.58 0.0681102
0.59 0.0784625
0.6 0.088627
0.61 0.0983765
0.62 0.107533
0.63 0.115907
0.64 0.123265
0.65 0.129329
0.66 0.134067
0.67 0.13735
0.68 0.139064
0.69 0.138879
0.7 0.137
0.71 0.133417
0.72 0.128149
0.73 0.12105
0.74 0.112372
0.75 0.102284
0.76 0.0909293
0.77 0.07839
0.78 0.0649014
0.79 0.0507408
0.8 0.0361151
0.81 0.021234
0.82 0.00634276
0.83 -0.00833351
0.84 -0.0226038
0.85 -0.0362861
0.86 -0.0490929
0.87 -0.0609913
0.88 -0.0718772
0.89 -0.0816722
0.9 -0.090175
0.91 -0.0974739
0.92 -0.103617
0.93 -0.108639
0.94 -0.112514
0.95 -0.115358
0.96 -0.11735
0.97 -0.118607
0.98 -0.119231
0.99 -0.119353
1 -0.119173
1.01 -0.118825
1.02 -0.118441
1.03 -0.118174
1.04 -0.118131
1.05 -0.118407
1.06 -0.119082
1.07 -0.12029
1.08 -0.122036
1.09 -0.124333
1.1 -0.127196
1.11 -0.130672
1.12 -0.134731
1.13 -0.139305
1.14 -0.144357
1.15 -0.149862
1.16 -0.155784
1.17 -0.162023
1.18 -0.168525
1.19 -0.175236
1.2 -0.182117
1.21 -0.189087
1.22 -0.196097
1.23 -0.203098
1.24 -0.210032
1.25 -0.21685
1.26 -0.223506
1.27 -0.229951
1.28 -0.2361
1.29 -0.241885
1.3 -0.247258
1.31 -0.25214
1.32 -0.25641
1.33 -0.259912
1.34 -0.262601
1.35 -0.26436
1.36 -0.265046
1.37 -0.264341
1.38 -0.26227
1.39 -0.258693
1.4 -0.253476
1.41 -0.246238
1.42 -0.237035
1.43 -0.225817
1.44 -0.21251
1.45 -0.196861
1.46 -0.178907
1.47 -0.158814
1.48 -0.136641
1.49 -0.112391
1.5 -0.0861381
1.51 -0.0582873
1.52 -0.0290744
1.53 0.00123474
1.54 0.0323726
1.55 0.0638345
1.56 0.0952367
1.57 0.126174
1.58 0.156048
1.59 0.184465
1.6 0.211022
1.61 0.235302
1.62 0.256616
1.63 0.274606
1.64 0.289128
1.65 0.299901
1.66 0.306463
1.67 0.308409
1.68 0.306067
1.69 0.299407
1.7 0.288402
1.71 0.272637
1.72 0.25292
1.73 0.229499
1.74 0.202683
1.75 0.172472
1.76 0.139677
1.77 0.104824
1.78 0.0683922
1.79 0.0308286
1.8 -0.00722986
1.81 -0.0452163
1.82 -0.0826397
1.83 -0.118945
1.84 -0.153548
1.85 -0.186179
1.86 -0.216497
1.87 -0.244164
1.88 -0.268556
1.89 -0.289899
1.9 -0.308093
1.91 -0.323099
1.92 -0.334504
1.93 -0.342759
1.94 -0.34807
1.95 -0.350607
1.96 -0.350351
1.97 -0.347674
1.98 -0.342992
1.99 -0.336573
2 -0.32862
2.01 -0.319394
2.02 -0.309284
2.03 -0.298517
2.04 -0.28729
2.05 -0.275763
2.06 -0.26412
2.07 -0.252452
2.08 -0.240815
2.09 -0.229236
2.1 -0.217688
2.11 -0.20612
2.12 -0.194454
2.13 -0.182564
2.14 -0.170327
2.15 -0.157634
2.16 -0.144368
2.17 -0.130366
2.18 -0.115481
2.19 -0.0997079
2.2 -0.0829978
2.21 -0.0653107
2.22 -0.0465522
2.23 -0.0269162
2.24 -0.00649852
2.25 0.0145687
2.26 0.0361573
2.27 0.0579734
2.28 0.0797686
2.29 0.101279
2.3 0.122134
2.31 0.142008
2.32 0.160634
2.33 0.177715
2.34 0.19283
2.35 0.205579
2.36 0.215909
2.37 0.223611
2.38 0.22845
2.39 0.229935
2.4 0.228389
2.41 0.223791
2.42 0.216165
2.43 0.205186
2.44 0.191369
2.45 0.174952
2.46 0.156162
2.47 0.135075
2.48 0.112139
2.49 0.0878005
2.5 0.0624029
2.51 0.0362811
2.52 0.00984899
2.53 -0.0164829
2.54 -0.0423783
2.55 -0.0674966
2.56 -0.0913841
2.57 -0.113908
2.58 -0.134859
2.59 -0.154067
2.6 -0.171127
2.61 -0.186192
2.62 -0.199272
2.63 -0.210389
2.64 -0.219417
2.65 -0.226575
2.66 -0.232114
2.67 -0.236211
2.68 -0.238999
2.69 -0.240708
2.7 -0.241683
2.71 -0.242159
2.72 -0.242368
2.73 -0.242567
2.74 -0.242987
2.75 -0.243813
2.76 -0.245203
2.77 -0.247404
2.78 -0.250429
2.79 -0.254321
2.8 -0.259097
2.81 -0.264828
2.82 -0.2714
2.83 -0.278672
2.84 -0.286518
2.85 -0.2948
2.86 -0.303314
2.87 -0.311822
2.88 -0.320114
2.89 -0.327953
2.9 -0.335008
2.91 -0.341128
2.92 -0.346107
2.93 -0.34975
2.94 -0.35164
2.95 -0.351811
2.96 -0.350166
2.97 -0.346617
2.98 -0.340897
2.99 -0.333087
3 -0.323315
3.01 -0.311634
3.02 -0.298014
3.03 -0.282557
3.04 -0.265582
3.05 -0.247268
3.06 -0.227786
3.07 -0.207296
3.08 -0.186175
3.09 -0.16466
3.1 -0.142996
3.11 -0.121472
3.12 -0.100339
3.13 -0.0798179
3.14 -0.060114
3.15 -0.0415435
3.16 -0.0242393
3.17 -0.00828108
3.18 0.0062247
3.19 0.0190908
3.2 0.0302286
3.21 0.03977
3.22 0.0477347
3.23 0.0541284
3.24 0.0588946
3.25 0.0623389
3.26 0.0645902
3.27 0.0657956
3.28 0.0660125
3.29 0.0655631
3.3 0.0646423
3.31 0.0634397
3.32 0.0621563
3.33 0.0610142
3.34 0.0601924
3.35 0.0598559
3.36 0.0602104
3.37 0.0614283
3.38 0.0635576
3.39 0.0666849
3.4 0.0709085
3.41 0.0763808
3.42 0.0829711
3.43 0.0906642
3.44 0.099422
3.45 0.109324
3.46 0.120133
3.47 0.131733
3.48 0.144005
3.49 0.156856
3.5 0.170083
3.51 0.183506
3.52 0.196964
3.53 0.210279
3.54 0.223255
3.55 0.235755
3.56 0.247634
3.57 0.258731
3.58 0.268819
3.59 0.277897
3.6 0.285877
3.61 0.292687
3.62 0.298082
3.63 0.302201
3.64 0.30504
3.65 0.306601
3.66 0.306764
3.67 0.305653
3.68 0.303377
3.69 0.299996
3.7 0.295509
3.71 0.289998
3.72 0.283634
3.73 0.276502
3.74 0.268671
3.75 0.260185
3.76 0.25121
3.77 0.241824
3.78 0.232097
3.79 0.222063
3.8 0.211824
3.81 0.201432
3.82 0.190925
3.83 0.18033
3.84 0.169681
3.85 0.158999
3.86 0.148294
3.87 0.137574
3.88 0.126843
3.89 0.116104
3.9 0.105361
3.91 0.0946152
3.92 0.0838752
3.93 0.0731512
3.94 0.0624586
3.95 0.0518179
3.96 0.0412732
3.97 0.0308515
3.98 0.0205944
3.99 0.0105502
4 0.00081123
4.01 -0.00857147
4.02 -0.0175448
4.03 -0.0260406
4.04 -0.0339412
4.05 -0.0411577
4.06 -0.0476686
4.07 -0.0534087
4.08 -0.0582846
4.09 -0.062157
4.1 -0.0650865
4.11 -0.0670388
4.12 -0.06799
4.13 -0.0677681
4.14 -0.0665326
4.15 -0.0643029
4.16 -0.0611086
4.17 -0.05689
4.18 -0.0517821
4.19 -0.0458938
4.2 -0.0393053
4.21 -0.0320665
4.22 -0.0242936
4.23 -0.0161406
4.24 -0.00771637
4.25 0.000869341
4.26 0.00948952
4.27 0.0180193
4.28 0.0263543
4.29 0.0343959
4.3 0.0419789
4.31 0.0490749
4.32 0.0556166
4.33 0.0615479
4.34 0.0667436
4.35 0.0712226
4.36 0.0749995
4.37 0.0780752
4.38 0.0804111
4.39 0.0820408
4.4 0.0830611
4.41 0.083524
4.42 0.083474
4.43 0.0829588
4.44 0.0821129
4.45 0.0810168
4.46 0.0797535
4.47 0.0784064
4.48 0.0770806
4.49 0.0758551
4.5 0.0748045
4.51 0.074035
4.52 0.0735969
4.53 0.0735314
4.54 0.0738812
4.55 0.0747179
4.56 0.0760672
4.57 0.0779034
4.58 0.0802273
4.59 0.0830493
4.6 0.0863829
4.61 0.090143
4.62 0.094294
4.63 0.098794
4.64 0.103634
4.65 0.108708
4.66 0.113959
4.67 0.119328
4.68 0.124756
4.69 0.130168
4.7 0.135502
4.71 0.140703
4.72 0.145695
4.73 0.150417
4.74 0.154837
4.75 0.158911
4.76 0.16258
4.77 0.165773
4.78 0.168503
4.79 0.170745
4.8 0.172474
4.81 0.173586
4.82 0.174146
4.83 0.174142
4.84 0.173564
4.85 0.172332
4.86 0.170491
4.87 0.168059
4.88 0.165035
4.89 0.16137
4.9 0.157072
4.91 0.152191
4.92 0.146734
4.93 0.140684
4.94 0.134015
4.95 0.126808
4.96 0.119078
4.97 0.110845
4.98 0.102063
4.99 0.0928369
5 0.0831994
5.01 0.0731852
5.02 0.0627961
5.03 0.0521125
5.04 0.0411927
5.05 0.0300867
5.06 0.0188407
5.07 0.00752237
5.08 -0.00380209
5.09 -0.0150748
5.1 -0.0262295
5.11 -0.0371866
5.12 -0.0479044
5.13 -0.0583289
5.14 -0.0684068
5.15 -0.0780257
5.16 -0.0871991
5.17 -0.0958901
5.18 -0.104067
5.19 -0.111633
5.2 -0.118617
5.21 -0.125025
5.22 -0.130851
5.23 -0.136044
5.24 -0.140618
5.25 -0.144629
5.26 -0.14809
5.27 -0.150998
5.28 -0.153345
5.29 -0.155216
5.3 -0.156635
5.31 -0.157625
5.32 -0.158158
5.33 -0.158321
5.34 -0.158135
5.35 -0.157618
5.36 -0.156748
5.37 -0.155568
5.38 -0.154096
5.39 -0.152335
5.4 -0.15026
5.41 -0.147871
5.42 -0.145184
5.43 -0.142189
5.44 -0.138859
5.45 -0.13516
5.46 -0.131118
5.47 -0.126721
5.48 -0.121957
5.49 -0.116766
5.5 -0.111201
5.51 -0.105264
5.52 -0.09896
5.53 -0.0922548
5.54 -0.0852027
5.55 -0.0778366
5.56 -0.0701832
5.57 -0.0622546
5.58 -0.0540998
5.59 -0.0457775
5.6 -0.0373318
5.61 -0.0288081
5.62 -0.0202623
5.63 -0.0117506
5.64 -0.00332157
5.65 0.00497537
5.66 0.0130637
5.67 0.0209233
5.68 0.0285169
5.69 0.0358113
5.7 0.0427319
5.71 0.0492869
5.72 0.0554698
5.73 0.0612696
5.74 0.0666449
5.75 0.0716044
5.76 0.0761796
5.77 0.0803788
5.78 0.0841954
5.79 0.0876261
5.8 0.0907256
5.81 0.0935099
5.82 0.0959911
5.83 0.0981475
5.84 0.100035
5.85 0.101665
5.86 0.103042
5.87 0.104141
5.88 0.104986
5.89 0.105583
5.9 0.105925
5.91 0.105979
5.92 0.105739
5.93 0.10521
5.94 0.104381
5.95 0.103222
5.96 0.101704
5.97 0.0998507
5.98 0.0976584
5.99 0.0951208
6 0.0921979
6.01 0.0889496
6.02 0.0853915
6.03 0.0815451
6.04 0.0774071
6.05 0.0730449
6.06 0.0685052
6.07 0.0638331
6.08 0.0590747
6.09 0.0542953
6.1 0.0495545
6.11 0.0449082
6.12 0.0404232
6.13 0.0361732
6.14 0.0321909
6.15 0.0285215
6.16 0.0252111
6.17 0.0223472
6.18 0.0199008
6.19 0.017887
6.2 0.0163123
6.21 0.0152323
6.22 0.0145829
6.23 0.0143306
6.24 0.0144442
6.25 0.0149119
6.26 0.0156679
6.27 0.0166391
6.28 0.0177687
6.29 0.0189988
6.3 0.0202584
6.31 0.0214779
6.32 0.0225982
6.33 0.0235596
6.34 0.0242767
6.35 0.0247295
6.36 0.0248805
6.37 0.0246998
6.38 0.0241144
6.39 0.0231515
6.4 0.0218165
6.41 0.0201151
6.42 0.0180284
6.43 0.0155954
6.44 0.0128673
6.45 0.00987914
6.46 0.00666022
6.47 0.00325412
6.48 -0.000272248
6.49 -0.0038729
6.5 -0.00750201
6.51 -0.0111068
6.52 -0.0146447
6.53 -0.018079
6.54 -0.0213776
6.55 -0.0244872
6.56 -0.0274033
6.57 -0.0301144
6.58 -0.0326111
6.59 -0.0348672
6.6 -0.0368925
6.61 -0.0387062
6.62 -0.0403176
6.63 -0.0417281
6.64 -0.0429472
6.65 -0.0440087
6.66 -0.0449272
6.67 -0.0457144
6.68 -0.0463703
6.69 -0.0469216
6.7 -0.0473745
6.71 -0.0477318
6.72 -0.0479789
6.73 -0.0481214
6.74 -0.0481522
6.75 -0.0480588
6.76 -0.0478101
6.77 -0.0473904
6.78 -0.0467879
6.79 -0.0459816
6.8 -0.0449351
6.81 -0.0436146
6.82 -0.0420239
6.83 -0.0401466
6.84 -0.0379623
6.85 -0.0354236
6.86 -0.0325682
6.87 -0.0293961
6.88 -0.0259122
6.89 -0.0220855
6.9 -0.0179715
6.91 -0.0135965
6.92 -0.00898603
6.93 -0.00415185
6.94 0.000857371
6.95 0.00599348
6.96 0.0112179
6.97 0.0164908
6.98 0.0217641
6.99 0.0269935
7 0.0321395
7.01 0.0371603
7.02 0.0419963
7.03 0.0466328
7.04 0.05104
7.05 0.0551912
7.06 0.05902
7.07 0.0625397
7.08 0.0657391
7.09 0.0686053
7.1 0.0710915
7.11 0.0732053
7.12 0.0749612
7.13 0.0763559
7.14 0.0773637
7.15 0.077972
7.16 0.0782155
7.17 0.0780943
7.18 0.0775996
7.19 0.0766914
7.2 0.0754196
7.21 0.0737844
7.22 0.0717867
7.23 0.0693751
7.24 0.0665989
7.25 0.0634667
7.26 0.0599829
7.27 0.0561183
7.28 0.0519007
7.29 0.0473609
7.3 0.0425135
7.31 0.0373584
7.32 0.0319141
7.33 0.026233
7.34 0.0203441
7.35 0.0142763
7.36 0.00805637
7.37 0.001746
7.38 -0.00461328
7.39 -0.010978
7.4 -0.017291
7.41 -0.0235056
7.42 -0.029577
7.43 -0.03546
7.44 -0.0410813
7.45 -0.0464048
7.46 -0.0514046
7.47 -0.0560456
7.48 -0.0602675
7.49 -0.0640272
7.5 -0.0673394
7.51 -0.0701863
7.52 -0.0725409
7.53 -0.0743425
7.54 -0.0756516
7.55 -0.0764689
7.56 -0.0767989
7.57 -0.0765798
7.58 -0.0758895
7.59 -0.0747479
7.6 -0.0731707
7.61 -0.0711322
7.62 -0.0686783
7.63 -0.0658502
7.64 -0.0626679
7.65 -0.0591306
7.66 -0.0552559
7.67 -0.0510945
7.68 -0.0466673
7.69 -0.0419886
7.7 -0.0370608
7.71 -0.0319372
7.72 -0.0266406
7.73 -0.0211949
7.74 -0.0156108
7.75 -0.00993603
7.76 -0.00420118
7.77 0.00156257
7.78 0.00731737
7.79 0.0130215
7.8 0.0186374
7.81 0.0241249
7.82 0.0294271
7.83 0.0344883
7.84 0.0392805
7.85 0.0437597
7.86 0.0478696
7.87 0.0515211
7.88 0.0547213
7.89 0.0574326
7.9 0.0596205
7.91 0.0611664
7.92 0.0621208
7.93 0.0624689
7.94 0.0621965
7.95 0.0612243
7.96 0.0595902
7.97 0.0573297
7.98 0.0544537
7.99 0.0509372
8 0.0467979
8.01 0.042116
8.02 0.0369236
8.03 0.031242
8.04 0.0250748
8.05 0.0185222
8.06 0.011626
8.07 0.00442835
8.08 -0.00306224
8.09 -0.0107624
8.1 -0.0186315
8.11 -0.0266326
8.12 -0.0347388
8.13 -0.0429073
8.14 -0.0511056
8.15 -0.0593086
8.16 -0.0674906
8.17 -0.0756272
8.18 -0.0837031
8.19 -0.0917021
8.2 -0.0996061
8.21 -0.107389
8.22 -0.115049
8.23 -0.122571
8.24 -0.129942
8.25 -0.137116
8.26 -0.144099
8.27 -0.150873
8.28 -0.157416
8.29 -0.163675
8.3 -0.169638
8.31 -0.175293
8.32 -0.180613
8.33 -0.185542
8.34 -0.190047
8.35 -0.194134
8.36 -0.197779
8.37 -0.200945
8.38 -0.203569
8.39 -0.205697
8.4 -0.207318
8.41 -0.208429
8.42 -0.208951
8.43 -0.208967
8.44 -0.208492
8.45 -0.207541
8.46 -0.206085
8.47 -0.204185
8.48 -0.201892
8.49 -0.199236
8.5 -0.196229
8.51 -0.192912
8.52 -0.189346
8.53 -0.185567
8.54 -0.181601
8.55 -0.177473
8.56 -0.173231
8.57 -0.168899
8.58 -0.164495
8.59 -0.160029
8.6 -0.15552
8.61 -0.150972
8.62 -0.146386
8.63 -0.141754
8.64 -0.137069
8.65 -0.132322
8.66 -0.127499
8.67 -0.12258
8.68 -0.117545
8.69 -0.112387
8.7 -0.107094
8.71 -0.101649
8.72 -0.0960306
8.73 -0.0902525
8.74 -0.0843159
8.75 -0.0782256
8.76 -0.07197
8.77 -0.0655884
8.78 -0.0591004
8.79 -0.0525293
8.8 -0.0458987
8.81 -0.0392475
8.82 -0.0326098
8.83 -0.0260184
8.84 -0.0195153
8.85 -0.0131389
8.86 -0.00691171
8.87 -0.000860424
8.88 0.0049833
8.89 0.010581
8.9 0.0159452
8.91 0.0210695
8.92 0.0259531
8.93 0.0305648
8.94 0.0349554
8.95 0.0391424
8.96 0.0431479
8.97 0.046983
8.98 0.0506951
8.99 0.0543226
9 0.0578992
9.01 0.06146
9.02 0.0650445
9.03 0.0686837
9.04 0.0724048
9.05 0.0762363
9.06 0.0802088
9.07 0.0843208
9.08 0.0885782
9.09 0.0929813
9.1 0.0975439
9.11 0.102229
9.12 0.107018
9.13 0.111887
9.14 0.116809
9.15 0.121743
9.16 0.126652
9.17 0.1315
9.18 0.136239
9.19 0.140824
9.2 0.145232
9.21 0.14943
9.22 0.153379
9.23 0.157031
9.24 0.160399
9.25 0.163469
9.26 0.166233
9.27 0.168641
9.28 0.170746
9.29 0.172556
9.3 0.174086
9.31 0.17532
9.32 0.176305
9.33 0.177072
9.34 0.177645
9.35 0.178032
9.36 0.178263
9.37 0.178369
9.38 0.17837
9.39 0.178276
9.4 0.178095
9.41 0.177845
9.42 0.177527
9.43 0.177142
9.44 0.176672
9.45 0.176121
9.46 0.175476
9.47 0.174724
9.48 0.173833
9.49 0.172795
9.5 0.1716
9.51 0.170232
9.52 0.168661
9.53 0.166877
9.54 0.164886
9.55 0.162684
9.56 0.160264
9.57 0.157616
9.58 0.154775
9.59 0.151754
9.6 0.148571
9.61 0.14523
9.62 0.141781
9.63 0.138252
9.64 0.134672
9.65 0.131073
9.66 0.127493
9.67 0.123962
9.68 0.120509
9.69 0.117172
9.7 0.113977
9.71 0.110938
9.72 0.108069
9.73 0.105394
9.74 0.102934
9.75 0.100671
9.76 0.098607
9.77 0.0967392
9.78 0.0950879
9.79 0.0936144
9.8 0.0923082
9.81 0.0911577
9.82 0.0901678
9.83 0.0893114
9.84 0.0885737
9.85 0.0879458
9.86 0.0874297
9.87 0.0870191
9.88 0.0867058
9.89 0.0864918
9.9 0.0863876
9.91 0.086409
9.92 0.086555
9.93 0.0868375
9.94 0.0872718
9.95 0.0878975
9.96 0.0887057
9.97 0.0897095
9.98 0.0909207
9.99 0.0923781
10 0.0940669
10.01 0.0959825
10.02 0.0981231
10.03 0.100501
10.04 0.103098
10.05 0.105882
10.06 0.108831
10.07 0.111924
10.08 0.115132
10.09 0.118405
10.1 0.121705
10.11 0.124992
10.12 0.12821
10.13 0.131321
10.14 0.134283
10.15 0.137055
10.16 0.139565
10.17 0.141795
10.18 0.143721
10.19 0.145314
10.2 0.146517
10.21 0.147317
10.22 0.147725
10.23 0.147733
10.24 0.147317
10.25 0.146456
10.26 0.145199
10.27 0.143554
10.28 0.141529
10.29 0.139092
10.3 0.136312
10.31 0.133206
10.32 0.12979
10.33 0.126045
10.34 0.122018
10.35 0.117732
10.36 0.113199
10.37 0.10841
10.38 0.103381
10.39 0.0981348
10.4 0.0926784
10.41 0.0870058
10.42 0.0811113
10.43 0.0750208
10.44 0.0687384
10.45 0.0622668
10.46 0.0555893
10.47 0.0487416
10.48 0.041734
10.49 0.0345791
10.5 0.027277
10.51 0.0198632
10.52 0.0123623
10.53 0.00479823
10.54 -0.00280359
10.55 -0.0104084
10.56 -0.0179844
10.57 -0.0255008
10.58 -0.03292
10.59 -0.0402002
10.6 -0.0473227
10.61 -0.0542607
10.62 -0.0609863
10.63 -0.0674457
10.64 -0.0736536
10.65 -0.0795976
10.66 -0.0852698
10.67 -0.0906289
10.68 -0.0957078
10.69 -0.100519
10.7 -0.105074
10.71 -0.109363
10.72 -0.113415
10.73 -0.117264
10.74 -0.120931
10.75 -0.12443
10.76 -0.127779
10.77 -0.131014
10.78 -0.134152
10.79 -0.137208
10.8 -0.140185
10.81 -0.143103
10.82 -0.145963
10.83 -0.148764
10.84 -0.151491
10.85 -0.154138
10.86 -0.156691
10.87 -0.159133
10.88 -0.161426
10.89 -0.163548
10.9 -0.165481
10.91 -0.167201
10.92 -0.168667
10.93 -0.169841
10.94 -0.170729
10.95 -0.171312
10.96 -0.171574
10.97 -0.171465
10.98 -0.171031
10.99 -0.170275
11 -0.169207
11.01 -0.167806
11.02 -0.16613
11.03 -0.164213
11.04 -0.162087
11.05 -0.159772
11.06 -0.157321
11.07 -0.154783
11.08 -0.152199
11.09 -0.149611
11.1 -0.147065
11.11 -0.144598
11.12 -0.142241
11.13 -0.140025
11.14 -0.137996
11.15 -0.136151
11.16 -0.134501
11.17 -0.133052
11.18 -0.13183
11.19 -0.130804
11.2 -0.129959
11.21 -0.129279
11.22 -0.128757
11.23 -0.12836
11.24 -0.128056
11.25 -0.127818
11.26 -0.127624
11.27 -0.127446
11.28 -0.127258
11.29 -0.127042
11.3 -0.126781
11.31 -0.126458
11.32 -0.126072
11.33 -0.125622
11.34 -0.125113
11.35 -0.124546
11.36 -0.123941
11.37 -0.123316
11.38 -0.12269
11.39 -0.122089
11.4 -0.121538
11.41 -0.12106
11.42 -0.120676
11.43 -0.120417
11.44 -0.12031
11.45 -0.120358
11.46 -0.120572
11.47 -0.120965
11.48 -0.121557
11.49 -0.122324
11.5 -0.123255
11.51 -0.124339
11.52 -0.125575
11.53 -0.126922
11.54 -0.128351
11.55 -0.129837
11.56 -0.131347
11.57 -0.132846
11.58 -0.134301
11.59 -0.135683
11.6 -0.136956
11.61 -0.138084
11.62 -0.139058
11.63 -0.139858
11.64 -0.140467
11.65 -0.140851
11.66 -0.141033
11.67 -0.141014
11.68 -0.140799
11.69 -0.14037
11.7 -0.139768
11.71 -0.13901
11.72 -0.138116
11.73 -0.137094
11.74 -0.135975
11.75 -0.134784
11.76 -0.133542
11.77 -0.132265
11.78 -0.130971
11.79 -0.129674
11.8 -0.128384
11.81 -0.127107
11.82 -0.125845
11.83 -0.124596
11.84 -0.123352
11.85 -0.122105
11.86 -0.120839
11.87 -0.11954
11.88 -0.118193
11.89 -0.116779
11.9 -0.11527
11.91 -0.113653
11.92 -0.111915
11.93 -0.110042
11.94 -0.108012
11.95 -0.105811
11.96 -0.103448
11.97 -0.100919
11.98 -0.0982233
11.99 -0.0953491
12 -0.0923272
12.01 -0.0891698
12.02 -0.0858913
12.03 -0.0824957
12.04 -0.0790186
12.05 -0.0754809
12.06 -0.071903
12.07 -0.0683053
12.08 -0.0647116
12.09 -0.0611406
12.1 -0.0576084
12.11 -0.0541335
