[DEFAULT]

version = diffpy.pdfgetx-2.2.1

# input and output specifications
dataformat = twotheta
inputfile = Synthetic_CSH_CSH_pdf_ramp_400_04_normalized.chi
backgroundfiles = quartz_030degC_normalized.chi
outputtype = gr

# PDF calculation setup
mode = xray
wavelength = 0.2113
twothetazero = 0
composition = CaO SiO2
bgscales = 1.0
rpoly = 0.9
qmaxinst = 23.7031
qmin = 0.5
qmax = 20
rmin = 0
rmax = 60
rstep = 0.01

# End of config --------------------------------------------------------------

#### start data
#S 1
#L r(Å)  G(Å$^{-2}$)
0 0
0.01 -0.00329602
0.02 -0.00647599
0.03 -0.00944136
0.04 -0.0120996
0.05 -0.0143104
0.06 -0.016024
0.07 -0.0172014
0.08 -0.0178029
0.09 -0.0177564
0.1 -0.0170593
0.11 -0.0157775
0.12 -0.0139462
0.13 -0.0115999
0.14 -0.00878716
0.15 -0.00565103
0.16 -0.0022879
0.17 0.00119741
0.18 0.00467786
0.19 0.00802517
0.2 0.0111272
0.21 0.0138764
0.22 0.0161064
0.23 0.0177551
0.24 0.01877
0.25 0.0190971
0.26 0.0186406
0.27 0.0173902
0.28 0.0154166
0.29 0.0127557
0.3 0.00944163
0.31 0.00552947
0.32 0.00119571
0.33 -0.00343849
0.34 -0.00823769
0.35 -0.0130328
0.36 -0.0176472
0.37 -0.0219211
0.38 -0.0256957
0.39 -0.0287176
0.4 -0.0308791
0.41 -0.0320779
0.42 -0.0322045
0.43 -0.0310667
0.44 -0.0286003
0.45 -0.0248648
0.46 -0.0198578
0.47 -0.0135529
0.48 -0.00593487
0.49 0.00276045
0.5 0.0124144
0.51 0.0228873
0.52 0.034084
0.53 0.0456966
0.54 0.0575249
0.55 0.0693604
0.56 0.0809374
0.57 0.0920308
0.58 0.102445
0.59 0.111988
0.6 0.120379
0.61 0.127443
0.62 0.133135
0.63 0.137354
0.64 0.139954
0.65 0.14078
0.66 0.140005
0.67 0.137655
0.68 0.133774
0.69 0.128241
0.7 0.121397
0.71 0.113367
0.72 0.104295
0.73 0.0942386
0.74 0.0834656
0.75 0.0721656
0.76 0.0604962
0.77 0.0486018
0.78 0.0366498
0.79 0.0247747
0.8 0.0130796
0.81 0.00166487
0.82 -0.00937495
0.83 -0.0200343
0.84 -0.0302952
0.85 -0.0401546
0.86 -0.0495783
0.87 -0.058661
0.88 -0.0674466
0.89 -0.0759852
0.9 -0.0843119
0.91 -0.0925046
0.92 -0.100615
0.93 -0.10868
0.94 -0.116725
0.95 -0.124761
0.96 -0.132781
0.97 -0.140758
0.98 -0.148642
0.99 -0.156352
1 -0.163821
1.01 -0.170958
1.02 -0.177661
1.03 -0.183732
1.04 -0.189137
1.05 -0.193776
1.06 -0.197559
1.07 -0.200279
1.08 -0.201967
1.09 -0.202621
1.1 -0.202237
1.11 -0.200753
1.12 -0.19826
1.13 -0.19492
1.14 -0.190858
1.15 -0.186202
1.16 -0.181139
1.17 -0.17593
1.18 -0.170787
1.19 -0.16594
1.2 -0.161717
1.21 -0.158283
1.22 -0.155835
1.23 -0.154553
1.24 -0.154771
1.25 -0.156475
1.26 -0.159683
1.27 -0.164403
1.28 -0.17072
1.29 -0.178475
1.3 -0.187404
1.31 -0.197289
1.32 -0.207882
1.33 -0.218829
1.34 -0.229701
1.35 -0.24011
1.36 -0.249633
1.37 -0.257607
1.38 -0.263765
1.39 -0.267708
1.4 -0.269064
1.41 -0.267072
1.42 -0.261725
1.43 -0.252898
1.44 -0.24045
1.45 -0.223975
1.46 -0.203604
1.47 -0.179712
1.48 -0.152506
1.49 -0.122139
1.5 -0.0889221
1.51 -0.0536357
1.52 -0.0168068
1.53 0.0209892
1.54 0.05907
1.55 0.096663
1.56 0.133104
1.57 0.167733
1.58 0.199495
1.59 0.227972
1.6 0.252685
1.61 0.273155
1.62 0.288501
1.63 0.298493
1.64 0.303238
1.65 0.302631
1.66 0.296376
1.67 0.284339
1.68 0.267302
1.69 0.245579
1.7 0.219505
1.71 0.189141
1.72 0.15564
1.73 0.119598
1.74 0.08164
1.75 0.0423276
1.76 0.00253956
1.77 -0.037066
1.78 -0.0758881
1.79 -0.113187
1.8 -0.148417
1.81 -0.18125
1.82 -0.211339
1.83 -0.238228
1.84 -0.261557
1.85 -0.281562
1.86 -0.29824
1.87 -0.311614
1.88 -0.321464
1.89 -0.328477
1.9 -0.332923
1.91 -0.33511
1.92 -0.33516
1.93 -0.333691
1.94 -0.331098
1.95 -0.327719
1.96 -0.32385
1.97 -0.319831
1.98 -0.31591
1.99 -0.312258
2 -0.309017
2.01 -0.306262
2.02 -0.303928
2.03 -0.301935
2.04 -0.300146
2.05 -0.298343
2.06 -0.296263
2.07 -0.293638
2.08 -0.290176
2.09 -0.285375
2.1 -0.279029
2.11 -0.270877
2.12 -0.26066
2.13 -0.247907
2.14 -0.2325
2.15 -0.21447
2.16 -0.193764
2.17 -0.17024
2.18 -0.143896
2.19 -0.115164
2.2 -0.0842754
2.21 -0.0514905
2.22 -0.0170396
2.23 0.0184167
2.24 0.0544312
2.25 0.0905286
2.26 0.126087
2.27 0.160587
2.28 0.193548
2.29 0.224494
2.3 0.25269
2.31 0.277768
2.32 0.299536
2.33 0.31771
2.34 0.331821
2.35 0.341546
2.36 0.347202
2.37 0.348795
2.38 0.346314
2.39 0.33948
2.4 0.329062
2.41 0.31533
2.42 0.298601
2.43 0.278913
2.44 0.257033
2.45 0.233418
2.46 0.208488
2.47 0.182613
2.48 0.156313
2.49 0.13002
2.5 0.104093
2.51 0.078921
2.52 0.054878
2.53 0.0321235
2.54 0.0108481
2.55 -0.00876227
2.56 -0.026399
2.57 -0.0422462
2.58 -0.0563001
2.59 -0.0685936
2.6 -0.0789626
2.61 -0.0877339
2.62 -0.0950588
2.63 -0.101077
2.64 -0.105835
2.65 -0.109572
2.66 -0.112508
2.67 -0.114796
2.68 -0.116556
2.69 -0.117932
2.7 -0.119083
2.71 -0.120108
2.72 -0.121088
2.73 -0.122099
2.74 -0.123186
2.75 -0.124379
2.76 -0.125689
2.77 -0.127136
2.78 -0.128692
2.79 -0.130337
2.8 -0.132046
2.81 -0.133795
2.82 -0.135548
2.83 -0.137274
2.84 -0.138948
2.85 -0.140541
2.86 -0.142026
2.87 -0.143395
2.88 -0.144636
2.89 -0.145737
2.9 -0.146674
2.91 -0.147459
2.92 -0.148086
2.93 -0.14855
2.94 -0.148815
2.95 -0.14889
2.96 -0.148761
2.97 -0.148408
2.98 -0.147778
2.99 -0.14685
3 -0.145604
3.01 -0.144007
3.02 -0.141991
3.03 -0.139504
3.04 -0.136546
3.05 -0.133087
3.06 -0.129085
3.07 -0.12446
3.08 -0.119274
3.09 -0.113527
3.1 -0.10723
3.11 -0.100329
3.12 -0.0929382
3.13 -0.0851096
3.14 -0.0769012
3.15 -0.0683542
3.16 -0.0595752
3.17 -0.0506617
3.18 -0.041699
3.19 -0.0327819
3.2 -0.0240135
3.21 -0.0154671
3.22 -0.0072129
3.23 0.000676478
3.24 0.00810555
3.25 0.015093
3.26 0.0216253
3.27 0.0277052
3.28 0.0332934
3.29 0.0384958
3.3 0.043375
3.31 0.0480038
3.32 0.05246
3.33 0.0568668
3.34 0.0613366
3.35 0.0659771
3.36 0.0709239
3.37 0.0763086
3.38 0.0821983
3.39 0.088676
3.4 0.0958323
3.41 0.103794
3.42 0.1125
3.43 0.121952
3.44 0.132131
3.45 0.143088
3.46 0.154646
3.47 0.166703
3.48 0.179145
3.49 0.191849
3.5 0.204623
3.51 0.217293
3.52 0.22969
3.53 0.241595
3.54 0.252791
3.55 0.263159
3.56 0.272543
3.57 0.280763
3.58 0.287559
3.59 0.292984
3.6 0.296965
3.61 0.299456
3.62 0.300204
3.63 0.299441
3.64 0.297215
3.65 0.293589
3.66 0.288511
3.67 0.282193
3.68 0.274823
3.69 0.266541
3.7 0.257451
3.71 0.247729
3.72 0.237596
3.73 0.227203
3.74 0.216697
3.75 0.206239
3.76 0.195957
3.77 0.185954
3.78 0.176318
3.79 0.16719
3.8 0.158559
3.81 0.150444
3.82 0.142855
3.83 0.135836
3.84 0.129322
3.85 0.123249
3.86 0.117565
3.87 0.112234
3.88 0.107186
3.89 0.102332
3.9 0.0976109
3.91 0.0929711
3.92 0.0883613
3.93 0.0837389
3.94 0.0790809
3.95 0.0743764
3.96 0.0696225
3.97 0.0648458
3.98 0.0600778
3.99 0.0553612
4 0.0507678
4.01 0.0463631
4.02 0.042211
4.03 0.0383846
4.04 0.0349944
4.05 0.0321312
4.06 0.0298281
4.07 0.0281468
4.08 0.0271672
4.09 0.0270006
4.1 0.0275895
4.11 0.0289488
4.12 0.0310794
4.13 0.0340838
4.14 0.037812
4.15 0.0422176
4.16 0.0472444
4.17 0.0528812
4.18 0.0589956
4.19 0.0654778
4.2 0.072236
4.21 0.0791808
4.22 0.0861958
4.23 0.0931722
4.24 0.100017
4.25 0.10663
4.26 0.11289
4.27 0.118754
4.28 0.124158
4.29 0.129048
4.3 0.133284
4.31 0.136917
4.32 0.139925
4.33 0.142297
4.34 0.143951
4.35 0.144943
4.36 0.145314
4.37 0.145081
4.38 0.144226
4.39 0.142782
4.4 0.140826
4.41 0.138393
4.42 0.135501
4.43 0.132158
4.44 0.128451
4.45 0.124414
4.46 0.12008
4.47 0.115441
4.48 0.110573
4.49 0.105505
4.5 0.100264
4.51 0.0948598
4.52 0.0893331
4.53 0.0837132
4.54 0.0780228
4.55 0.0722819
4.56 0.0665164
4.57 0.0607506
4.58 0.055004
4.59 0.0492981
4.6 0.0436576
4.61 0.0380929
4.62 0.0326175
4.63 0.0272428
4.64 0.0219953
4.65 0.0168631
4.66 0.0118473
4.67 0.00694535
4.68 0.00216324
4.69 -0.00252029
4.7 -0.00712376
4.71 -0.0116649
4.72 -0.0161629
4.73 -0.0206461
4.74 -0.0251427
4.75 -0.029679
4.76 -0.0342853
4.77 -0.0389987
4.78 -0.0438343
4.79 -0.0488132
4.8 -0.0539535
4.81 -0.0592974
4.82 -0.0648264
4.83 -0.0705427
4.84 -0.0764431
4.85 -0.0825385
4.86 -0.0887956
4.87 -0.0951863
4.88 -0.101684
4.89 -0.108261
4.9 -0.114875
4.91 -0.121481
4.92 -0.12804
4.93 -0.134505
4.94 -0.140818
4.95 -0.146954
4.96 -0.152874
4.97 -0.158546
4.98 -0.163894
4.99 -0.168936
5 -0.173653
5.01 -0.178033
5.02 -0.182026
5.03 -0.185661
5.04 -0.188955
5.05 -0.191915
5.06 -0.194528
5.07 -0.196814
5.08 -0.198814
5.09 -0.200544
5.1 -0.202011
5.11 -0.203216
5.12 -0.204199
5.13 -0.204969
5.14 -0.205531
5.15 -0.205855
5.16 -0.205969
5.17 -0.205864
5.18 -0.205528
5.19 -0.20491
5.2 -0.20401
5.21 -0.202817
5.22 -0.201305
5.23 -0.19942
5.24 -0.197141
5.25 -0.194475
5.26 -0.191406
5.27 -0.187904
5.28 -0.183936
5.29 -0.179554
5.3 -0.174768
5.31 -0.169593
5.32 -0.164009
5.33 -0.158108
5.34 -0.151935
5.35 -0.145537
5.36 -0.138955
5.37 -0.132273
5.38 -0.125558
5.39 -0.118875
5.4 -0.1123
5.41 -0.105905
5.42 -0.0997398
5.43 -0.0938559
5.44 -0.088317
5.45 -0.0831894
5.46 -0.0784621
5.47 -0.0741524
5.48 -0.0702718
5.49 -0.0668759
5.5 -0.0638852
5.51 -0.0612757
5.52 -0.0590148
5.53 -0.057097
5.54 -0.0554377
5.55 -0.0539761
5.56 -0.0526578
5.57 -0.0514298
5.58 -0.0502251
5.59 -0.0489864
5.6 -0.0476658
5.61 -0.0462128
5.62 -0.0445767
5.63 -0.0427466
5.64 -0.0407056
5.65 -0.0384428
5.66 -0.0359304
5.67 -0.0332138
5.68 -0.0303137
5.69 -0.0272581
5.7 -0.0240714
5.71 -0.020813
5.72 -0.0175315
5.73 -0.0142746
5.74 -0.0111022
5.75 -0.0080692
5.76 -0.00521495
5.77 -0.00258053
5.78 -0.000217277
5.79 0.00182393
5.8 0.00355034
5.81 0.00494804
5.82 0.00600652
5.83 0.00668335
5.84 0.00703939
5.85 0.00709265
5.86 0.00686724
5.87 0.00636402
5.88 0.00564873
5.89 0.00476583
5.9 0.00375479
5.91 0.00265137
5.92 0.00150462
5.93 0.000357023
5.94 -0.000757109
5.95 -0.00180204
5.96 -0.00274225
5.97 -0.00356498
5.98 -0.00425476
5.99 -0.00479881
6 -0.00517091
6.01 -0.00539192
6.02 -0.00546476
6.03 -0.0053951
6.04 -0.00517368
6.05 -0.00482531
6.06 -0.00436235
6.07 -0.00379285
6.08 -0.00311417
6.09 -0.00233347
6.1 -0.00145728
6.11 -0.000482185
6.12 0.000605322
6.13 0.00182454
6.14 0.00317964
6.15 0.00468921
6.16 0.00637748
6.17 0.00829721
6.18 0.0104465
6.19 0.0128495
6.2 0.0155294
6.21 0.0185503
6.22 0.0218986
6.23 0.0255795
6.24 0.0296006
6.25 0.0339963
6.26 0.038749
6.27 0.0438235
6.28 0.0492001
6.29 0.0548659
6.3 0.0607921
6.31 0.0669104
6.32 0.0731755
6.33 0.0795388
6.34 0.0859447
6.35 0.0923267
6.36 0.0986299
6.37 0.104801
6.38 0.110755
6.39 0.116459
6.4 0.121876
6.41 0.126968
6.42 0.131666
6.43 0.135957
6.44 0.139847
6.45 0.143331
6.46 0.146382
6.47 0.148993
6.48 0.15122
6.49 0.153083
6.5 0.154599
6.51 0.155763
6.52 0.156652
6.53 0.157298
6.54 0.157733
6.55 0.157964
6.56 0.158045
6.57 0.158002
6.58 0.157854
6.59 0.15761
6.6 0.157282
6.61 0.156879
6.62 0.156399
6.63 0.15583
6.64 0.155153
6.65 0.154362
6.66 0.153437
6.67 0.152353
6.68 0.151065
6.69 0.149572
6.7 0.147855
6.71 0.145894
6.72 0.143637
6.73 0.141103
6.74 0.138291
6.75 0.135202
6.76 0.131813
6.77 0.12815
6.78 0.124248
6.79 0.120129
6.8 0.115813
6.81 0.111334
6.82 0.106746
6.83 0.102091
6.84 0.0974094
6.85 0.0927542
6.86 0.0881696
6.87 0.0836968
6.88 0.079375
6.89 0.0752714
6.9 0.0713989
6.91 0.0677808
6.92 0.0644391
6.93 0.0614222
6.94 0.0587294
6.95 0.0563485
6.96 0.0542788
6.97 0.0525337
6.98 0.0511109
6.99 0.0499656
7 0.0490792
7.01 0.0484355
7.02 0.0480309
7.03 0.0478081
7.04 0.0477409
7.05 0.0478025
7.06 0.0479773
7.07 0.0482232
7.08 0.0485139
7.09 0.0488262
7.1 0.0491358
7.11 0.0494194
7.12 0.0496589
7.13 0.0498379
7.14 0.0499354
7.15 0.0499325
7.16 0.0498247
7.17 0.0496011
7.18 0.0492483
7.19 0.0487408
7.2 0.0480879
7.21 0.0472822
7.22 0.046317
7.23 0.0451617
7.24 0.0438326
7.25 0.0423286
7.26 0.0406474
7.27 0.0387693
7.28 0.0367048
7.29 0.0344666
7.3 0.0320601
7.31 0.0294825
7.32 0.0267413
7.33 0.0238642
7.34 0.0208657
7.35 0.0177605
7.36 0.0145611
7.37 0.0113017
7.38 0.0080039
7.39 0.00469016
7.4 0.00138743
7.41 -0.00188
7.42 -0.00509096
7.43 -0.00822551
7.44 -0.0112537
7.45 -0.0141628
7.46 -0.0169458
7.47 -0.0195939
7.48 -0.0220917
7.49 -0.0244336
7.5 -0.0266348
7.51 -0.0287009
7.52 -0.0306371
7.53 -0.0324446
7.54 -0.0341537
7.55 -0.0357798
7.56 -0.037339
7.57 -0.0388428
7.58 -0.040316
7.59 -0.0417738
7.6 -0.0432289
7.61 -0.0446936
7.62 -0.0461757
7.63 -0.0476783
7.64 -0.0492012
7.65 -0.0507417
7.66 -0.0522909
7.67 -0.0538361
7.68 -0.055363
7.69 -0.0568536
7.7 -0.0582807
7.71 -0.0596295
7.72 -0.06088
7.73 -0.0620129
7.74 -0.0629871
7.75 -0.0638041
7.76 -0.0644529
7.77 -0.0649249
7.78 -0.065195
7.79 -0.0652749
7.8 -0.0651792
7.81 -0.0649185
7.82 -0.0644984
7.83 -0.0639399
7.84 -0.0632804
7.85 -0.0625466
7.86 -0.0617673
7.87 -0.0609769
7.88 -0.0602113
7.89 -0.0595004
7.9 -0.0588729
7.91 -0.0583744
7.92 -0.0580135
7.93 -0.0578059
7.94 -0.0577635
7.95 -0.0579117
7.96 -0.0582396
7.97 -0.0587319
7.98 -0.0593766
7.99 -0.0601645
8 -0.0610703
8.01 -0.062056
8.02 -0.063092
8.03 -0.0641467
8.04 -0.0651816
8.05 -0.0661641
8.06 -0.0670651
8.07 -0.0678582
8.08 -0.068498
8.09 -0.0689847
8.1 -0.0693084
8.11 -0.0694642
8.12 -0.0694353
8.13 -0.0692427
8.14 -0.0689095
8.15 -0.0684564
8.16 -0.0679042
8.17 -0.0672879
8.18 -0.0666483
8.19 -0.0660199
8.2 -0.0654399
8.21 -0.0649551
8.22 -0.0645888
8.23 -0.0643675
8.24 -0.0643126
8.25 -0.0644693
8.26 -0.0648191
8.27 -0.0653601
8.28 -0.0660842
8.29 -0.0669923
8.3 -0.0680443
8.31 -0.0692007
8.32 -0.0704239
8.33 -0.0716691
8.34 -0.0728802
8.35 -0.0740067
8.36 -0.0749993
8.37 -0.0758013
8.38 -0.0763392
8.39 -0.076597
8.4 -0.0765406
8.41 -0.0761425
8.42 -0.0753254
8.43 -0.0741341
8.44 -0.0725716
8.45 -0.0706489
8.46 -0.0683497
8.47 -0.0657341
8.48 -0.062856
8.49 -0.0597617
8.5 -0.0564946
8.51 -0.0531215
8.52 -0.0497141
8.53 -0.0463314
8.54 -0.0430363
8.55 -0.0399048
8.56 -0.0369733
8.57 -0.0342843
8.58 -0.0318723
8.59 -0.0298145
8.6 -0.0280808
8.61 -0.0266749
8.62 -0.0255919
8.63 -0.0248512
8.64 -0.0244012
8.65 -0.0241957
8.66 -0.0241954
8.67 -0.0243645
8.68 -0.0246453
8.69 -0.0249755
8.7 -0.0253057
8.71 -0.0255846
8.72 -0.0257539
8.73 -0.0257839
8.74 -0.0256445
8.75 -0.0253133
8.76 -0.024743
8.77 -0.0239625
8.78 -0.0229792
8.79 -0.0218088
8.8 -0.0204596
8.81 -0.0189822
8.82 -0.0174225
8.83 -0.0158244
8.84 -0.0142397
8.85 -0.0127265
8.86 -0.0113308
8.87 -0.0100974
8.88 -0.00907644
8.89 -0.00832697
8.9 -0.00784866
8.91 -0.00765826
8.92 -0.0077635
8.93 -0.00820733
8.94 -0.00892715
8.95 -0.00989831
8.96 -0.0110873
8.97 -0.0124677
8.98 -0.0139678
8.99 -0.0155252
9 -0.017081
9.01 -0.0185642
9.02 -0.0199023
9.03 -0.0210438
9.04 -0.0219354
9.05 -0.0225158
9.06 -0.0227135
9.07 -0.0225371
9.08 -0.0219686
9.09 -0.0209998
9.1 -0.0195744
9.11 -0.0177734
9.12 -0.0156248
9.13 -0.0131662
9.14 -0.0104174
9.15 -0.00746337
9.16 -0.00437347
9.17 -0.00121071
9.18 0.00195563
9.19 0.00504911
9.2 0.00800991
9.21 0.0107826
9.22 0.0133057
9.23 0.0155113
9.24 0.0173992
9.25 0.0189502
9.26 0.0201541
9.27 0.0209619
9.28 0.0214438
9.29 0.021625
9.3 0.0215399
9.31 0.0212087
9.32 0.0207078
9.33 0.0200994
9.34 0.0194402
9.35 0.0187932
9.36 0.0182255
9.37 0.0177881
9.38 0.0175283
9.39 0.0174984
9.4 0.0177547
9.41 0.0182928
9.42 0.0191257
9.43 0.0202581
9.44 0.0217256
9.45 0.0234638
9.46 0.0254465
9.47 0.0276403
9.48 0.0300217
9.49 0.0325237
9.5 0.035093
9.51 0.0376807
9.52 0.0402324
9.53 0.0426942
9.54 0.0450288
9.55 0.0472013
9.56 0.0491739
9.57 0.050909
9.58 0.0524193
9.59 0.0537035
9.6 0.0547673
9.61 0.0555995
9.62 0.0562583
9.63 0.056775
9.64 0.0571857
9.65 0.0575278
9.66 0.0578567
9.67 0.0582175
9.68 0.0586523
9.69 0.0592137
9.7 0.0599409
9.71 0.0608529
9.72 0.0619704
9.73 0.0633172
9.74 0.0649119
9.75 0.0667228
9.76 0.0687348
9.77 0.0709254
9.78 0.0732783
9.79 0.0757273
9.8 0.0782269
9.81 0.0807275
9.82 0.0831628
9.83 0.0854762
9.84 0.0876166
9.85 0.0895333
9.86 0.0911514
9.87 0.0924266
9.88 0.0933453
9.89 0.0938816
9.9 0.0939971
9.91 0.0936568
9.92 0.0929074
9.93 0.0917594
9.94 0.090228
9.95 0.0882943
9.96 0.0860491
9.97 0.083532
9.98 0.0807862
9.99 0.0778403
10 0.0747667
10.01 0.0716176
10.02 0.0684378
10.03 0.0652738
10.04 0.0621697
10.05 0.0591548
10.06 0.0562541
10.07 0.0534937
10.08 0.0508949
10.09 0.0484459
10.1 0.0461433
10.11 0.0439795
10.12 0.0419541
10.13 0.0400269
10.14 0.0381747
10.15 0.0363721
10.16 0.0345922
10.17 0.0328023
10.18 0.0309769
10.19 0.0290935
10.2 0.0271235
10.21 0.0250508
10.22 0.022871
10.23 0.0205786
10.24 0.0181675
10.25 0.0156377
10.26 0.0130115
10.27 0.0103034
10.28 0.00753047
10.29 0.00471107
10.3 0.00187684
10.31 -0.000948421
10.32 -0.00374094
10.33 -0.00646741
10.34 -0.00910979
10.35 -0.0116516
10.36 -0.0140776
10.37 -0.0163637
10.38 -0.0185048
10.39 -0.020507
10.4 -0.0223717
10.41 -0.0240972
10.42 -0.0256875
10.43 -0.0271684
10.44 -0.0285541
10.45 -0.029859
10.46 -0.0310933
10.47 -0.0322837
10.48 -0.0334449
10.49 -0.0345896
10.5 -0.0357285
10.51 -0.0368702
10.52 -0.0380182
10.53 -0.039172
10.54 -0.0403274
10.55 -0.0414748
10.56 -0.0426027
10.57 -0.0436969
10.58 -0.044737
10.59 -0.0456985
10.6 -0.046568
10.61 -0.0473273
10.62 -0.0479565
10.63 -0.0484194
10.64 -0.0487228
10.65 -0.0488583
10.66 -0.0488208
10.67 -0.0485867
10.68 -0.0481811
10.69 -0.0476183
10.7 -0.0469127
10.71 -0.0460733
10.72 -0.0451315
10.73 -0.0441213
10.74 -0.0430713
10.75 -0.0420126
10.76 -0.0409822
10.77 -0.0400098
10.78 -0.0391229
10.79 -0.0383489
10.8 -0.0377287
10.81 -0.0372613
10.82 -0.0369573
10.83 -0.0368223
10.84 -0.0368783
10.85 -0.0370979
10.86 -0.037464
10.87 -0.0379583
10.88 -0.0385656
10.89 -0.0392499
10.9 -0.0399743
10.91 -0.0407066
10.92 -0.0414102
10.93 -0.042044
10.94 -0.0425806
10.95 -0.0429923
10.96 -0.0432516
10.97 -0.0433157
10.98 -0.0431939
10.99 -0.0428794
11 -0.0423714
11.01 -0.0416511
11.02 -0.0407552
11.03 -0.039707
11.04 -0.0385309
11.05 -0.0372493
11.06 -0.0359048
11.07 -0.0345386
11.08 -0.0331874
11.09 -0.0318932
11.1 -0.0307016
11.11 -0.0296388
11.12 -0.0287332
11.13 -0.0280132
11.14 -0.0275234
11.15 -0.0272483
11.16 -0.0271921
11.17 -0.0273521
11.18 -0.027746
11.19 -0.0283295
11.2 -0.029075
11.21 -0.0299538
11.22 -0.0309391
11.23 -0.031983
11.24 -0.0330407
11.25 -0.034072
11.26 -0.0350306
11.27 -0.0358672
11.28 -0.0365546
11.29 -0.0370621
11.3 -0.0373589
11.31 -0.0373959
11.32 -0.0371901
11.33 -0.0367362
11.34 -0.0360351
11.35 -0.0350623
11.36 -0.0338649
11.37 -0.0324687
11.38 -0.0309002
11.39 -0.0291793
11.4 -0.0273528
11.41 -0.0254652
11.42 -0.0235539
11.43 -0.0216594
11.44 -0.0198259
11.45 -0.0180838
11.46 -0.0164623
11.47 -0.0149903
11.48 -0.0137096
11.49 -0.0126125
11.5 -0.0117068
11.51 -0.0109945
11.52 -0.0104987
11.53 -0.0101845
11.54 -0.0100345
11.55 -0.0100304
11.56 -0.0101614
11.57 -0.0103937
11.58 -0.0106951
11.59 -0.0110405
11.6 -0.0114046
11.61 -0.0117599
11.62 -0.0120851
11.63 -0.012363
11.64 -0.0125783
11.65 -0.0127127
11.66 -0.0127706
11.67 -0.0127521
11.68 -0.0126613
11.69 -0.0124981
11.7 -0.0122843
11.71 -0.0120356
11.72 -0.0117686
11.73 -0.0115034
11.74 -0.0112618
11.75 -0.0110618
11.76 -0.0109203
11.77 -0.0108582
11.78 -0.0108926
11.79 -0.0110248
11.8 -0.01126
11.81 -0.0116024
11.82 -0.0120594
11.83 -0.0126097
11.84 -0.0132423
11.85 -0.0139427
11.86 -0.0146987
11.87 -0.015481
11.88 -0.0162674
11.89 -0.0170356
11.9 -0.0177563
11.91 -0.0184062
11.92 -0.0189676
11.93 -0.0194225
