[DEFAULT]

version = diffpy.pdfgetx-2.2.1

# input and output specifications
dataformat = twotheta
inputfile = Synthetic_CSH_CSH_pdf_ramp_200_04_normalized.chi
backgroundfiles = quartz_030degC_normalized.chi
outputtype = gr

# PDF calculation setup
mode = xray
wavelength = 0.2113
twothetazero = 0
composition = CaO SiO2
bgscales = 1.0
rpoly = 0.9
qmaxinst = 23.7031
qmin = 0.5
qmax = 20
rmin = 0
rmax = 60
rstep = 0.01

# End of config --------------------------------------------------------------

#### start data
#S 1
#L r(Å)  G(Å$^{-2}$)
0 0
0.01 -0.001872
0.02 -0.0036864
0.03 -0.0053939
0.04 -0.00694748
0.05 -0.00827477
0.06 -0.00934736
0.07 -0.0101413
0.08 -0.0106311
0.09 -0.0107711
0.1 -0.0105505
0.11 -0.00999577
0.12 -0.00911607
0.13 -0.00791795
0.14 -0.00641277
0.15 -0.00467454
0.16 -0.00274913
0.17 -0.000689243
0.18 0.0014479
0.19 0.0035784
0.2 0.00563443
0.21 0.00754699
0.22 0.00921348
0.23 0.0105764
0.24 0.0115848
0.25 0.0121863
0.26 0.0122976
0.27 0.0118841
0.28 0.0109661
0.29 0.00954227
0.3 0.00760711
0.31 0.00516441
0.32 0.00232307
0.33 -0.000849446
0.34 -0.00427111
0.35 -0.00785165
0.36 -0.0114436
0.37 -0.0149255
0.38 -0.0181698
0.39 -0.0209824
0.4 -0.0232441
0.41 -0.0248424
0.42 -0.0256583
0.43 -0.0255013
0.44 -0.0242701
0.45 -0.0219659
0.46 -0.0185421
0.47 -0.0139253
0.48 -0.00804173
0.49 -0.00106281
0.5 0.00694578
0.51 0.0158955
0.52 0.0257696
0.53 0.0362773
0.54 0.0472496
0.55 0.0585007
0.56 0.0698152
0.57 0.0809454
0.58 0.0916782
0.59 0.101804
0.6 0.111035
0.61 0.119154
0.62 0.126059
0.63 0.131603
0.64 0.135597
0.65 0.137829
0.66 0.13842
0.67 0.137354
0.68 0.134632
0.69 0.130076
0.7 0.124021
0.71 0.116579
0.72 0.107883
0.73 0.0979694
0.74 0.087137
0.75 0.0756028
0.76 0.0635514
0.77 0.0511536
0.78 0.0386242
0.79 0.0261468
0.8 0.0138673
0.81 0.00193296
0.82 -0.00950872
0.83 -0.0204254
0.84 -0.0307699
0.85 -0.040515
0.86 -0.0495798
0.87 -0.0580857
0.88 -0.066081
0.89 -0.0736285
0.9 -0.080765
0.91 -0.0876193
0.92 -0.094285
0.93 -0.10084
0.94 -0.107357
0.95 -0.113901
0.96 -0.120511
0.97 -0.127205
0.98 -0.13398
0.99 -0.140808
1 -0.147625
1.01 -0.15436
1.02 -0.16092
1.03 -0.167141
1.04 -0.172938
1.05 -0.178189
1.06 -0.182775
1.07 -0.186468
1.08 -0.189235
1.09 -0.191023
1.1 -0.19178
1.11 -0.191388
1.12 -0.189881
1.13 -0.187389
1.14 -0.183996
1.15 -0.179794
1.16 -0.174935
1.17 -0.169695
1.18 -0.164289
1.19 -0.158956
1.2 -0.154028
1.21 -0.149733
1.22 -0.146313
1.23 -0.143993
1.24 -0.143166
1.25 -0.143883
1.26 -0.146216
1.27 -0.150227
1.28 -0.15607
1.29 -0.163632
1.3 -0.17266
1.31 -0.182957
1.32 -0.194301
1.33 -0.206347
1.34 -0.218612
1.35 -0.230677
1.36 -0.242075
1.37 -0.252105
1.38 -0.260401
1.39 -0.266497
1.4 -0.269948
1.41 -0.269892
1.42 -0.266256
1.43 -0.258853
1.44 -0.247489
1.45 -0.231673
1.46 -0.211511
1.47 -0.187394
1.48 -0.159535
1.49 -0.128089
1.5 -0.0934001
1.51 -0.0563534
1.52 -0.017554
1.53 0.0223316
1.54 0.0625026
1.55 0.10206
1.56 0.140224
1.57 0.176219
1.58 0.208802
1.59 0.237487
1.6 0.261724
1.61 0.28096
1.62 0.294187
1.63 0.301168
1.64 0.302069
1.65 0.296817
1.66 0.285139
1.67 0.266972
1.68 0.243296
1.69 0.214563
1.7 0.181269
1.71 0.143679
1.72 0.103162
1.73 0.060508
1.74 0.0165379
1.75 -0.027865
1.76 -0.0717102
1.77 -0.114205
1.78 -0.154616
1.79 -0.191959
1.8 -0.225655
1.81 -0.255443
1.82 -0.280988
1.83 -0.301812
1.84 -0.317604
1.85 -0.328887
1.86 -0.335835
1.87 -0.338663
1.88 -0.337354
1.89 -0.332958
1.9 -0.326014
1.91 -0.317109
1.92 -0.306754
1.93 -0.295807
1.94 -0.284892
1.95 -0.274571
1.96 -0.265505
1.97 -0.258158
1.98 -0.252782
1.99 -0.249608
2 -0.248906
2.01 -0.250786
2.02 -0.25489
2.03 -0.260999
2.04 -0.26882
2.05 -0.278029
2.06 -0.287902
2.07 -0.297886
2.08 -0.307392
2.09 -0.315569
2.1 -0.321852
2.11 -0.325679
2.12 -0.326505
2.13 -0.323449
2.14 -0.316171
2.15 -0.304593
2.16 -0.288516
2.17 -0.267576
2.18 -0.241635
2.19 -0.211328
2.2 -0.17694
2.21 -0.138796
2.22 -0.0970942
2.23 -0.0529328
2.24 -0.00697674
2.25 0.0400585
2.26 0.0873595
2.27 0.134014
2.28 0.179259
2.29 0.222358
2.3 0.262267
2.31 0.298369
2.32 0.330309
2.33 0.357642
2.34 0.379703
2.35 0.396025
2.36 0.407009
2.37 0.412664
2.38 0.413001
2.39 0.4077
2.4 0.397815
2.41 0.383762
2.42 0.366019
2.43 0.344752
2.44 0.321002
2.45 0.295419
2.46 0.268598
2.47 0.24111
2.48 0.21363
2.49 0.186685
2.5 0.160716
2.51 0.136206
2.52 0.113567
2.53 0.0928645
2.54 0.0742297
2.55 0.0577659
2.56 0.0436815
2.57 0.0315778
2.58 0.021291
2.59 0.0126088
2.6 0.00543394
2.61 -0.00072589
2.62 -0.00619117
2.63 -0.011262
2.64 -0.0162481
2.65 -0.0214682
2.66 -0.0271561
2.67 -0.0335044
2.68 -0.0407199
2.69 -0.04894
2.7 -0.058114
2.71 -0.0682202
2.72 -0.0792046
2.73 -0.0910035
2.74 -0.103329
2.75 -0.115973
2.76 -0.128703
2.77 -0.141205
2.78 -0.153203
2.79 -0.164441
2.8 -0.17467
2.81 -0.183508
2.82 -0.190785
2.83 -0.196413
2.84 -0.200275
2.85 -0.202173
2.86 -0.202028
2.87 -0.200046
2.88 -0.196307
2.89 -0.190892
2.9 -0.183832
2.91 -0.175546
2.92 -0.166261
2.93 -0.156223
2.94 -0.145658
2.95 -0.134927
2.96 -0.124291
2.97 -0.113994
2.98 -0.10434
2.99 -0.0955278
3 -0.0876803
3.01 -0.0809199
3.02 -0.0754134
3.03 -0.0712397
3.04 -0.0682827
3.05 -0.0665003
3.06 -0.0658431
3.07 -0.066285
3.08 -0.067542
3.09 -0.0694534
3.1 -0.0718446
3.11 -0.0745487
3.12 -0.0773168
3.13 -0.0799662
3.14 -0.0823272
3.15 -0.0841817
3.16 -0.0854005
3.17 -0.085902
3.18 -0.0856052
3.19 -0.084394
3.2 -0.0822184
3.21 -0.0791619
3.22 -0.0752517
3.23 -0.0705142
3.24 -0.0649525
3.25 -0.0587529
3.26 -0.0520058
3.27 -0.0448056
3.28 -0.0372067
3.29 -0.0293588
3.3 -0.0213442
3.31 -0.01323
3.32 -0.00506768
3.33 0.00310158
3.34 0.0112631
3.35 0.0194217
3.36 0.0276032
3.37 0.0358561
3.38 0.0442332
3.39 0.0527991
3.4 0.0616354
3.41 0.0708626
3.42 0.0805171
3.43 0.0906657
3.44 0.101365
3.45 0.112755
3.46 0.124778
3.47 0.137431
3.48 0.150697
3.49 0.164591
3.5 0.179
3.51 0.193804
3.52 0.20889
3.53 0.224124
3.54 0.239328
3.55 0.254324
3.56 0.26894
3.57 0.282975
3.58 0.296151
3.59 0.308372
3.6 0.319479
3.61 0.329323
3.62 0.337545
3.63 0.344228
3.64 0.349303
3.65 0.352716
3.66 0.354249
3.67 0.354017
3.68 0.352133
3.69 0.348657
3.7 0.343568
3.71 0.336974
3.72 0.329132
3.73 0.320181
3.74 0.310246
3.75 0.299437
3.76 0.288031
3.77 0.276187
3.78 0.264057
3.79 0.251785
3.8 0.23954
3.81 0.227438
3.82 0.21558
3.83 0.204096
3.84 0.19304
3.85 0.18244
3.86 0.172325
3.87 0.162749
3.88 0.153714
3.89 0.145164
3.9 0.137075
3.91 0.129431
3.92 0.122228
3.93 0.115375
3.94 0.108837
3.95 0.10258
3.96 0.0966094
3.97 0.090863
3.98 0.0853243
3.99 0.0799856
4 0.0748711
4.01 0.0699763
4.02 0.0653091
4.03 0.0608917
4.04 0.0567751
4.05 0.052999
4.06 0.0495732
4.07 0.0465315
4.08 0.0439232
4.09 0.0418218
4.1 0.0402
4.11 0.0390778
4.12 0.038469
4.13 0.0384633
4.14 0.0389794
4.15 0.0400073
4.16 0.0415317
4.17 0.0435842
4.18 0.0460966
4.19 0.049016
4.2 0.0523058
4.21 0.0559494
4.22 0.0598993
4.23 0.064088
4.24 0.0684752
4.25 0.0730269
4.26 0.0777107
4.27 0.0824749
4.28 0.0872894
4.29 0.0921267
4.3 0.0969579
4.31 0.101759
4.32 0.106508
4.33 0.111187
4.34 0.115762
4.35 0.120216
4.36 0.124531
4.37 0.12868
4.38 0.132617
4.39 0.136302
4.4 0.139713
4.41 0.142808
4.42 0.145525
4.43 0.147772
4.44 0.14954
4.45 0.150776
4.46 0.151423
4.47 0.151317
4.48 0.150503
4.49 0.148934
4.5 0.146569
4.51 0.143273
4.52 0.139085
4.53 0.134028
4.54 0.128102
4.55 0.121252
4.56 0.113514
4.57 0.104996
4.58 0.0957544
4.59 0.0858315
4.6 0.0752761
4.61 0.0642547
4.62 0.052865
4.63 0.0412103
4.64 0.0293904
4.65 0.0175514
4.66 0.00580002
4.67 -0.00576067
4.68 -0.0169873
4.69 -0.0278036
4.7 -0.0381461
4.71 -0.0479518
4.72 -0.0571194
4.73 -0.065612
4.74 -0.0734602
4.75 -0.080663
4.76 -0.0872079
4.77 -0.0930843
4.78 -0.0984095
4.79 -0.103238
4.8 -0.107631
4.81 -0.111616
4.82 -0.115334
4.83 -0.118862
4.84 -0.12228
4.85 -0.125665
4.86 -0.129103
4.87 -0.132656
4.88 -0.136377
4.89 -0.140332
4.9 -0.144556
4.91 -0.149051
4.92 -0.153824
4.93 -0.158882
4.94 -0.164222
4.95 -0.169784
4.96 -0.175532
4.97 -0.18142
4.98 -0.187403
4.99 -0.193405
5 -0.199368
5.01 -0.205235
5.02 -0.210922
5.03 -0.216382
5.04 -0.221571
5.05 -0.226447
5.06 -0.23094
5.07 -0.23502
5.08 -0.238692
5.09 -0.241943
5.1 -0.244746
5.11 -0.247073
5.12 -0.248978
5.13 -0.250473
5.14 -0.251569
5.15 -0.252227
5.16 -0.252525
5.17 -0.252479
5.18 -0.252101
5.19 -0.251364
5.2 -0.250304
5.21 -0.248934
5.22 -0.247251
5.23 -0.245217
5.24 -0.24282
5.25 -0.240067
5.26 -0.236933
5.27 -0.233375
5.28 -0.22933
5.29 -0.224819
5.3 -0.219814
5.31 -0.214286
5.32 -0.208134
5.33 -0.201423
5.34 -0.194144
5.35 -0.186297
5.36 -0.177817
5.37 -0.168778
5.38 -0.159227
5.39 -0.1492
5.4 -0.13871
5.41 -0.127832
5.42 -0.116661
5.43 -0.10527
5.44 -0.0937361
5.45 -0.0821543
5.46 -0.0706263
5.47 -0.0592414
5.48 -0.0480919
5.49 -0.0373247
5.5 -0.0269841
5.51 -0.0171486
5.52 -0.00788988
5.53 0.000636642
5.54 0.00843271
5.55 0.0154747
5.56 0.0217292
5.57 0.027099
5.58 0.0315882
5.59 0.0352557
5.6 0.0381134
5.61 0.0401453
5.62 0.0413448
5.63 0.0418398
5.64 0.0416794
5.65 0.0409129
5.66 0.0395368
5.67 0.0377036
5.68 0.0354811
5.69 0.0329386
5.7 0.0301218
5.71 0.0271347
5.72 0.0240504
5.73 0.020932
5.74 0.0178469
5.75 0.0148591
5.76 0.0120145
5.77 0.00935596
5.78 0.00693355
5.79 0.0047966
5.8 0.00294204
5.81 0.00138526
5.82 0.000138983
5.83 -0.000753102
5.84 -0.00134243
5.85 -0.00164073
5.86 -0.00166527
5.87 -0.00140867
5.88 -0.000929475
5.89 -0.000266854
5.9 0.00054347
5.91 0.00146936
5.92 0.00245971
5.93 0.00346606
5.94 0.00444667
5.95 0.00535467
5.96 0.00613803
5.97 0.00676889
5.98 0.00721487
5.99 0.00744454
6 0.00740075
6.01 0.00710055
6.02 0.00653531
6.03 0.00570337
6.04 0.00457708
6.05 0.00320173
6.06 0.0016074
6.07 -0.00017513
6.08 -0.00211774
6.09 -0.00416168
6.1 -0.00624506
6.11 -0.00831038
6.12 -0.0102878
6.13 -0.0120931
6.14 -0.0136693
6.15 -0.0149497
6.16 -0.0158619
6.17 -0.016278
6.18 -0.0161948
6.19 -0.0155599
6.2 -0.0143271
6.21 -0.0123672
6.22 -0.00971893
6.23 -0.00637975
6.24 -0.00234123
6.25 0.00246133
6.26 0.00798976
6.27 0.0141753
6.28 0.0209847
6.29 0.028406
6.3 0.0364038
6.31 0.0448607
6.32 0.0537131
6.33 0.0628976
6.34 0.072364
6.35 0.0819957
6.36 0.0917206
6.37 0.101468
6.38 0.111153
6.39 0.120708
6.4 0.130075
6.41 0.139198
6.42 0.147996
6.43 0.156428
6.44 0.164477
6.45 0.172112
6.46 0.179281
6.47 0.18594
6.48 0.192119
6.49 0.197805
6.5 0.202981
6.51 0.207574
6.52 0.211649
6.53 0.215201
6.54 0.218222
6.55 0.22063
6.56 0.222479
6.57 0.223768
6.58 0.224488
6.59 0.224565
6.6 0.224007
6.61 0.222836
6.62 0.221037
6.63 0.218562
6.64 0.215372
6.65 0.211525
6.66 0.207021
6.67 0.20185
6.68 0.195946
6.69 0.189418
6.7 0.182291
6.71 0.174596
6.72 0.166304
6.73 0.157536
6.74 0.148355
6.75 0.138826
6.76 0.128996
6.77 0.118963
6.78 0.10882
6.79 0.0986486
6.8 0.0885369
6.81 0.0785859
6.82 0.0688664
6.83 0.0594525
6.84 0.0504232
6.85 0.0419028
6.86 0.0338912
6.87 0.0264342
6.88 0.0195697
6.89 0.0134175
6.9 0.0079211
6.91 0.00307729
6.92 -0.00111405
6.93 -0.00459637
6.94 -0.00741743
6.95 -0.00963706
6.96 -0.0112827
6.97 -0.0123534
6.98 -0.0128719
6.99 -0.0129249
7 -0.0125471
7.01 -0.0117634
7.02 -0.0105686
7.03 -0.00904356
7.04 -0.00721256
7.05 -0.00509633
7.06 -0.0026755
7.07 1.20482e-06
7.08 0.00291985
7.09 0.00607323
7.1 0.00947908
7.11 0.0131209
7.12 0.0169806
7.13 0.0210516
7.14 0.025337
7.15 0.0298273
7.16 0.034485
7.17 0.0392869
7.18 0.044206
7.19 0.0492095
7.2 0.05424
7.21 0.0592488
7.22 0.0641821
7.23 0.0689527
7.24 0.0735069
7.25 0.0777809
7.26 0.0817082
7.27 0.0851715
7.28 0.0881169
7.29 0.0905079
7.3 0.0922903
7.31 0.0933706
7.32 0.0936839
7.33 0.0932664
7.34 0.0921018
7.35 0.0901658
7.36 0.0873875
7.37 0.0838901
7.38 0.0797069
7.39 0.0748822
7.4 0.0693936
7.41 0.0633926
7.42 0.0569602
7.43 0.0501751
7.44 0.0431006
7.45 0.0358512
7.46 0.0285256
7.47 0.021207
7.48 0.0139863
7.49 0.00695553
7.5 0.000170417
7.51 -0.0063119
7.52 -0.0124323
7.53 -0.0181067
7.54 -0.0233582
7.55 -0.028172
7.56 -0.0325433
7.57 -0.0364135
7.58 -0.039859
7.59 -0.0429082
7.6 -0.0455904
7.61 -0.0479077
7.62 -0.0499237
7.63 -0.0516952
7.64 -0.0532627
7.65 -0.0546568
7.66 -0.0559186
7.67 -0.0570947
7.68 -0.0582133
7.69 -0.0592971
7.7 -0.0603643
7.71 -0.0614291
7.72 -0.062496
7.73 -0.063565
7.74 -0.0646289
7.75 -0.0656773
7.76 -0.0666969
7.77 -0.0676724
7.78 -0.0685787
7.79 -0.0694002
7.8 -0.0701247
7.81 -0.0707389
7.82 -0.0712228
7.83 -0.0715657
7.84 -0.0717767
7.85 -0.0718574
7.86 -0.0718108
7.87 -0.0716384
7.88 -0.0713716
7.89 -0.0710294
7.9 -0.0706334
7.91 -0.0702066
7.92 -0.0697817
7.93 -0.0693845
7.94 -0.0690399
7.95 -0.0687825
7.96 -0.0686319
7.97 -0.0686019
7.98 -0.0687065
7.99 -0.0689672
8 -0.0693931
8.01 -0.0699722
8.02 -0.0707017
8.03 -0.0715795
8.04 -0.0726068
8.05 -0.073753
8.06 -0.0750037
8.07 -0.076344
8.08 -0.077768
8.09 -0.0792492
8.1 -0.080775
8.11 -0.0823357
8.12 -0.0839269
8.13 -0.0855435
8.14 -0.0871854
8.15 -0.0888572
8.16 -0.0905709
8.17 -0.0923409
8.18 -0.0941784
8.19 -0.0960996
8.2 -0.0981256
8.21 -0.100287
8.22 -0.102585
8.23 -0.105034
8.24 -0.107642
8.25 -0.110439
8.26 -0.113399
8.27 -0.116512
8.28 -0.119763
8.29 -0.123139
8.3 -0.126595
8.31 -0.130087
8.32 -0.133569
8.33 -0.136979
8.34 -0.140248
8.35 -0.143319
8.36 -0.146127
8.37 -0.148593
8.38 -0.150606
8.39 -0.152146
8.4 -0.153156
8.41 -0.153583
8.42 -0.153278
8.43 -0.152295
8.44 -0.150614
8.45 -0.148219
8.46 -0.145022
8.47 -0.141088
8.48 -0.136467
8.49 -0.131192
8.5 -0.125262
8.51 -0.118735
8.52 -0.111723
8.53 -0.104293
8.54 -0.0965059
8.55 -0.0884285
8.56 -0.0801778
8.57 -0.0718306
8.58 -0.0634619
8.59 -0.055162
8.6 -0.0469972
8.61 -0.0390272
8.62 -0.0313055
8.63 -0.0239179
8.64 -0.0168859
8.65 -0.0102257
8.66 -0.0039592
8.67 0.00186569
8.68 0.00723756
8.69 0.0121882
8.7 0.0167196
8.71 0.0208217
8.72 0.0244696
8.73 0.0277223
8.74 0.0305887
8.75 0.0330769
8.76 0.0351347
8.77 0.0368254
8.78 0.0381506
8.79 0.039109
8.8 0.0396524
8.81 0.0398031
8.82 0.0395688
8.83 0.0389417
8.84 0.0378818
8.85 0.0363818
8.86 0.0344711
8.87 0.0321502
8.88 0.0294087
8.89 0.0262288
8.9 0.022678
8.91 0.0187823
8.92 0.0145751
8.93 0.0100613
8.94 0.00533936
8.95 0.000466182
8.96 -0.00449558
8.97 -0.00947192
8.98 -0.0143778
8.99 -0.0191386
9 -0.0236796
9.01 -0.0278973
9.02 -0.0317082
9.03 -0.0350726
9.04 -0.0379329
9.05 -0.0402152
9.06 -0.0418284
9.07 -0.0428141
9.08 -0.0431582
9.09 -0.0428577
9.1 -0.0418275
9.11 -0.0401956
9.12 -0.038
9.13 -0.0352891
9.14 -0.0320731
9.15 -0.0284684
9.16 -0.0245663
9.17 -0.0204453
9.18 -0.0161819
9.19 -0.0118744
9.2 -0.00761077
9.21 -0.00346601
9.22 0.000479612
9.23 0.00413555
9.24 0.00747502
9.25 0.010457
9.26 0.0130492
9.27 0.0151672
9.28 0.0168671
9.29 0.0181532
9.3 0.0190394
9.31 0.019505
9.32 0.0196194
9.33 0.0194342
9.34 0.0189919
9.35 0.018324
9.36 0.017488
9.37 0.0165452
9.38 0.0155392
9.39 0.014511
9.4 0.0135031
9.41 0.0125458
9.42 0.0116618
9.43 0.0108681
9.44 0.0101908
9.45 0.0096177
9.46 0.00914602
9.47 0.0087686
9.48 0.00848367
9.49 0.00826843
9.5 0.00810592
9.51 0.00798257
9.52 0.00788816
9.53 0.00781258
9.54 0.00775074
9.55 0.00770454
9.56 0.00768334
9.57 0.0077071
9.58 0.00779507
9.59 0.00797539
9.6 0.00828276
9.61 0.00878655
9.62 0.00950912
9.63 0.0104957
9.64 0.0117922
9.65 0.0134944
9.66 0.015617
9.67 0.0181851
9.68 0.0212291
9.69 0.0248173
9.7 0.0289573
9.71 0.0336134
9.72 0.0387752
9.73 0.0444428
9.74 0.0506039
9.75 0.0571564
9.76 0.0640416
9.77 0.0711923
9.78 0.0785447
9.79 0.0859756
9.8 0.093394
9.81 0.100706
9.82 0.10778
9.83 0.114529
9.84 0.12087
9.85 0.126723
9.86 0.131955
9.87 0.136502
9.88 0.140354
9.89 0.143474
9.9 0.145797
9.91 0.147265
9.92 0.147969
9.93 0.147928
9.94 0.147167
9.95 0.145641
9.96 0.143513
9.97 0.140845
9.98 0.137707
9.99 0.134131
10 0.130244
10.01 0.126132
10.02 0.121871
10.03 0.117528
10.04 0.113182
10.05 0.108893
10.06 0.104707
10.07 0.100674
10.08 0.0968346
10.09 0.0931903
10.1 0.0897477
10.11 0.0865074
10.12 0.0834832
10.13 0.0806261
10.14 0.0779112
10.15 0.0753089
10.16 0.0727927
10.17 0.0703146
10.18 0.0678378
10.19 0.0653289
10.2 0.0627483
10.21 0.0600655
10.22 0.0572633
10.23 0.0543251
10.24 0.0512314
10.25 0.0479679
10.26 0.0445524
10.27 0.0409913
10.28 0.0372946
10.29 0.0334642
10.3 0.0295388
10.31 0.0255396
10.32 0.0214889
10.33 0.0174085
10.34 0.0133261
10.35 0.00926198
10.36 0.00523345
10.37 0.00126049
10.38 -0.00264604
10.39 -0.00648361
10.4 -0.0102498
10.41 -0.0139423
10.42 -0.017563
10.43 -0.0211273
10.44 -0.0246447
10.45 -0.0281257
10.46 -0.0315802
10.47 -0.0350236
10.48 -0.0384649
10.49 -0.0419111
10.5 -0.0453676
10.51 -0.0488336
10.52 -0.0523043
10.53 -0.0557712
10.54 -0.0592184
10.55 -0.0626258
10.56 -0.0659729
10.57 -0.069235
10.58 -0.0723766
10.59 -0.0753562
10.6 -0.078156
10.61 -0.0807465
10.62 -0.083095
10.63 -0.0851376
10.64 -0.086888
10.65 -0.0883287
10.66 -0.0894472
10.67 -0.0901911
10.68 -0.0905975
10.69 -0.0906809
10.7 -0.090454
10.71 -0.0899094
10.72 -0.0890858
10.73 -0.0880313
10.74 -0.0867792
10.75 -0.0853588
10.76 -0.0838093
10.77 -0.082185
10.78 -0.0805231
10.79 -0.0788599
10.8 -0.0772365
10.81 -0.0756791
10.82 -0.0742097
10.83 -0.0728453
10.84 -0.071613
10.85 -0.0705035
10.86 -0.0695106
10.87 -0.0686247
10.88 -0.0678382
10.89 -0.0671237
10.9 -0.0664508
10.91 -0.0657921
10.92 -0.0651158
10.93 -0.0643845
10.94 -0.0635718
10.95 -0.0626512
10.96 -0.0615962
10.97 -0.0603664
10.98 -0.0589684
10.99 -0.0573953
11 -0.0556459
11.01 -0.0537036
11.02 -0.0516033
11.03 -0.0493683
11.04 -0.047024
11.05 -0.0445964
11.06 -0.0421297
11.07 -0.0396665
11.08 -0.0372467
11.09 -0.0349182
11.1 -0.032733
11.11 -0.0307186
11.12 -0.0289086
11.13 -0.0273376
11.14 -0.0260634
11.15 -0.0250684
11.16 -0.0243618
11.17 -0.0239461
11.18 -0.0238556
11.19 -0.0240408
11.2 -0.0244763
11.21 -0.0251363
11.22 -0.0260058
11.23 -0.0270347
11.24 -0.0281728
11.25 -0.0293796
11.26 -0.0306126
11.27 -0.0318231
11.28 -0.0329708
11.29 -0.0340204
11.3 -0.0349369
11.31 -0.0356713
11.32 -0.0362227
11.33 -0.036577
11.34 -0.0367256
11.35 -0.0366368
11.36 -0.0363414
11.37 -0.0358532
11.38 -0.0351867
11.39 -0.0343463
11.4 -0.0333653
11.41 -0.0322768
11.42 -0.0311063
11.43 -0.0298773
11.44 -0.0286181
11.45 -0.0273562
11.46 -0.0261114
11.47 -0.024902
11.48 -0.0237488
11.49 -0.0226549
11.5 -0.021625
11.51 -0.0206602
11.52 -0.0197661
11.53 -0.0189276
11.54 -0.0181347
11.55 -0.0173765
11.56 -0.0166423
11.57 -0.0159165
11.58 -0.0151865
11.59 -0.014442
11.6 -0.0136732
11.61 -0.0128732
11.62 -0.0120432
11.63 -0.0111857
11.64 -0.0103067
11.65 -0.00941757
11.66 -0.00853594
11.67 -0.0076803
11.68 -0.00687206
11.69 -0.00614906
11.7 -0.00553109
11.71 -0.00504361
11.72 -0.00471302
11.73 -0.00458664
11.74 -0.00468229
11.75 -0.00500967
11.76 -0.00558501
11.77 -0.00643801
11.78 -0.00758379
11.79 -0.00899788
11.8 -0.010675
11.81 -0.0126107
11.82 -0.0148104
11.83 -0.0172179
11.84 -0.0198057
11.85 -0.0225422
11.86 -0.0254039
11.87 -0.0283328
11.88 -0.031288
11.89 -0.0342292
11.9 -0.0371067
11.91 -0.0398783
11.92 -0.0425111
11.93 -0.0449719
11.94 -0.0472155
11.95 -0.0492059
