[DEFAULT]

version = diffpy.pdfgetx-2.2.1

# input and output specifications
dataformat = twotheta
inputfile = Synthetic_CSH_CSH_pdf_ramp_100_00_normalized.chi
backgroundfiles = quartz_030degC_normalized.chi
outputtype = gr

# PDF calculation setup
mode = xray
wavelength = 0.2113
twothetazero = 0
composition = CaO SiO2
bgscales = 1.0
rpoly = 0.9
qmaxinst = 23.7031
qmin = 0.5
qmax = 20
rmin = 0
rmax = 60
rstep = 0.01

# End of config --------------------------------------------------------------

#### start data
#S 1
#L r(Å)  G(Å$^{-2}$)
0 0
0.01 -1.4611e-05
0.02 -4.1818e-05
0.03 -9.17175e-05
0.04 -0.000172723
0.05 -0.000295793
0.06 -0.000460841
0.07 -0.000665067
0.08 -0.000903687
0.09 -0.00116961
0.1 -0.00144842
0.11 -0.00172321
0.12 -0.00197714
0.13 -0.00218992
0.14 -0.00233609
0.15 -0.00240429
0.16 -0.00238038
0.17 -0.00225337
0.18 -0.0019992
0.19 -0.00163493
0.2 -0.00116671
0.21 -0.000606697
0.22 3.27114e-05
0.23 0.000716032
0.24 0.00140928
0.25 0.00207693
0.26 0.00267151
0.27 0.00314463
0.28 0.00346178
0.29 0.00358507
0.3 0.00346957
0.31 0.00306439
0.32 0.00237986
0.33 0.00140844
0.34 0.00015283
0.35 -0.00140794
0.36 -0.00319652
0.37 -0.00516653
0.38 -0.00725873
0.39 -0.00939739
0.4 -0.0114804
0.41 -0.0134116
0.42 -0.0150894
0.43 -0.0163685
0.44 -0.0171233
0.45 -0.017279
0.46 -0.0167375
0.47 -0.0153715
0.48 -0.0130313
0.49 -0.00975516
0.5 -0.0055064
0.51 -0.000264846
0.52 0.00610577
0.53 0.0134121
0.54 0.0215906
0.55 0.0305533
0.56 0.0402564
0.57 0.0504817
0.58 0.0610476
0.59 0.0717803
0.6 0.0824742
0.61 0.0928948
0.62 0.102847
0.63 0.112134
0.64 0.120514
0.65 0.127705
0.66 0.13365
0.67 0.138209
0.68 0.141252
0.69 0.142443
0.7 0.141965
0.71 0.139794
0.72 0.135936
0.73 0.13023
0.74 0.122913
0.75 0.114143
0.76 0.104049
0.77 0.0926925
0.78 0.0802949
0.79 0.067125
0.8 0.0533764
0.81 0.0392388
0.82 0.0249332
0.83 0.0106869
0.84 -0.00332024
0.85 -0.0169176
0.86 -0.0298538
0.87 -0.042074
0.88 -0.0534763
0.89 -0.0639818
0.9 -0.0734079
0.91 -0.0818135
0.92 -0.089226
0.93 -0.0956617
0.94 -0.101077
0.95 -0.105551
0.96 -0.109218
0.97 -0.112155
0.98 -0.114418
0.99 -0.116074
1 -0.117281
1.01 -0.118122
1.02 -0.118674
1.03 -0.11899
1.04 -0.119171
1.05 -0.119271
1.06 -0.119332
1.07 -0.119393
1.08 -0.119483
1.09 -0.119617
1.1 -0.119809
1.11 -0.12007
1.12 -0.120405
1.13 -0.120815
1.14 -0.121305
1.15 -0.121889
1.16 -0.122589
1.17 -0.123412
1.18 -0.124384
1.19 -0.125535
1.2 -0.126932
1.21 -0.128585
1.22 -0.130531
1.23 -0.132809
1.24 -0.135503
1.25 -0.138608
1.26 -0.142131
1.27 -0.14608
1.28 -0.150484
1.29 -0.155306
1.3 -0.160471
1.31 -0.165918
1.32 -0.17157
1.33 -0.177313
1.34 -0.183003
1.35 -0.188504
1.36 -0.193658
1.37 -0.19821
1.38 -0.202049
1.39 -0.205009
1.4 -0.206928
1.41 -0.207475
1.42 -0.206623
1.43 -0.204295
1.44 -0.200406
1.45 -0.194748
1.46 -0.187347
1.47 -0.178338
1.48 -0.16779
1.49 -0.15574
1.5 -0.142301
1.51 -0.127818
1.52 -0.112521
1.53 -0.096667
1.54 -0.0805572
1.55 -0.0645723
1.56 -0.0490332
1.57 -0.0342641
1.58 -0.0207737
1.59 -0.00879114
1.6 0.00143338
1.61 0.00964992
1.62 0.0154173
1.63 0.0186068
1.64 0.0192598
1.65 0.0173222
1.66 0.012655
1.67 0.005208
1.68 -0.00461716
1.69 -0.0166389
1.7 -0.0306531
1.71 -0.0465539
1.72 -0.0637449
1.73 -0.0818779
1.74 -0.100587
1.75 -0.11947
1.76 -0.138078
1.77 -0.156046
1.78 -0.173032
1.79 -0.188574
1.8 -0.202399
1.81 -0.214381
1.82 -0.224358
1.83 -0.232105
1.84 -0.237474
1.85 -0.240715
1.86 -0.241918
1.87 -0.241194
1.88 -0.238558
1.89 -0.234522
1.9 -0.229367
1.91 -0.223399
1.92 -0.216917
1.93 -0.210349
1.94 -0.204026
1.95 -0.198251
1.96 -0.193405
1.97 -0.189739
1.98 -0.187382
1.99 -0.186466
2 -0.187161
2.01 -0.189546
2.02 -0.193407
2.03 -0.198625
2.04 -0.205045
2.05 -0.212515
2.06 -0.220591
2.07 -0.228951
2.08 -0.237249
2.09 -0.24501
2.1 -0.25186
2.11 -0.257444
2.12 -0.261414
2.13 -0.263226
2.14 -0.262627
2.15 -0.259517
2.16 -0.253726
2.17 -0.244977
2.18 -0.233113
2.19 -0.218462
2.2 -0.201135
2.21 -0.181263
2.22 -0.15886
2.23 -0.13458
2.24 -0.108782
2.25 -0.0818603
2.26 -0.0542065
2.27 -0.0264124
2.28 0.00105563
2.29 0.0277495
2.3 0.0530725
2.31 0.0766027
2.32 0.0980606
2.33 0.117137
2.34 0.133401
2.35 0.14652
2.36 0.15665
2.37 0.163741
2.38 0.167746
2.39 0.168424
2.4 0.166352
2.41 0.161742
2.42 0.154853
2.43 0.145748
2.44 0.135051
2.45 0.123153
2.46 0.110419
2.47 0.0972044
2.48 0.0839454
2.49 0.0709949
2.5 0.0586543
2.51 0.0472601
2.52 0.037112
2.53 0.0282841
2.54 0.020893
2.55 0.0150417
2.56 0.0109182
2.57 0.0082704
2.58 0.0070119
2.59 0.00701828
2.6 0.00826465
2.61 0.0103974
2.62 0.0131902
2.63 0.0164249
2.64 0.0198801
2.65 0.0232927
2.66 0.0264528
2.67 0.0291799
2.68 0.0312713
2.69 0.0325585
2.7 0.0330177
2.71 0.0326002
2.72 0.0312711
2.73 0.0289646
2.74 0.0258672
2.75 0.0220741
2.76 0.0177061
2.77 0.0128661
2.78 0.00779242
2.79 0.00266292
2.8 -0.00234793
2.81 -0.00701971
2.82 -0.0111778
2.83 -0.0146961
2.84 -0.0174503
2.85 -0.0192778
2.86 -0.0200689
2.87 -0.0198726
2.88 -0.0186847
2.89 -0.0165076
2.9 -0.0133127
2.91 -0.00932045
2.92 -0.00464671
2.93 0.000572287
2.94 0.00621731
2.95 0.0120488
2.96 0.0178895
2.97 0.0235675
2.98 0.0288624
2.99 0.0336099
3 0.0376911
3.01 0.0409874
3.02 0.0433375
3.03 0.0446361
3.04 0.0449308
3.05 0.0442128
3.06 0.0424743
3.07 0.0396725
3.08 0.0360158
3.09 0.0316029
3.1 0.026551
3.11 0.0209382
3.12 0.0149968
3.13 0.00888412
3.14 0.00275276
3.15 -0.00321657
3.16 -0.00886516
3.17 -0.0140719
3.18 -0.0187218
3.19 -0.0226651
3.2 -0.0257936
3.21 -0.0281161
3.22 -0.0296004
3.23 -0.0302104
3.24 -0.029873
3.25 -0.0287325
3.26 -0.0268377
3.27 -0.0242508
3.28 -0.020965
3.29 -0.0171596
3.3 -0.0129287
3.31 -0.00836119
3.32 -0.00352604
3.33 0.00146671
3.34 0.00653272
3.35 0.011609
3.36 0.016638
3.37 0.0215733
3.38 0.0263978
3.39 0.0311028
3.4 0.0356888
3.41 0.040166
3.42 0.0445782
3.43 0.0489625
3.44 0.053362
3.45 0.0578408
3.46 0.0624447
3.47 0.0672204
3.48 0.0722114
3.49 0.077487
3.5 0.0830643
3.51 0.0889478
3.52 0.0951435
3.53 0.101666
3.54 0.108497
3.55 0.115573
3.56 0.12285
3.57 0.130271
3.58 0.137764
3.59 0.145233
3.6 0.152595
3.61 0.159763
3.62 0.166587
3.63 0.173009
3.64 0.178944
3.65 0.18431
3.66 0.188951
3.67 0.192835
3.68 0.195939
3.69 0.198221
3.7 0.199586
3.71 0.200006
3.72 0.199553
3.73 0.198241
3.74 0.196066
3.75 0.192997
3.76 0.189187
3.77 0.184693
3.78 0.179577
3.79 0.173836
3.8 0.167634
3.81 0.161048
3.82 0.154156
3.83 0.147015
3.84 0.139722
3.85 0.132357
3.86 0.124981
3.87 0.117659
3.88 0.110452
3.89 0.103397
3.9 0.0965278
3.91 0.0898832
3.92 0.0835092
3.93 0.0773924
3.94 0.0715419
3.95 0.0659621
3.96 0.0606951
3.97 0.0556961
3.98 0.0509575
3.99 0.0464717
4 0.0422571
4.01 0.0382859
4.02 0.0345389
4.03 0.0310087
4.04 0.0277048
4.05 0.0246238
4.06 0.0217463
4.07 0.0190725
4.08 0.0166128
4.09 0.0143912
4.1 0.0123894
4.11 0.010617
4.12 0.00908499
4.13 0.00784804
4.14 0.00688307
4.15 0.00620472
4.16 0.00582905
4.17 0.00581197
4.18 0.00614862
4.19 0.00684127
4.2 0.00790509
4.21 0.00938512
4.22 0.0112976
4.23 0.0136202
4.24 0.0163598
4.25 0.0195366
4.26 0.0231854
4.27 0.0272496
4.28 0.0317194
4.29 0.03658
4.3 0.0418657
4.31 0.0474874
4.32 0.0534103
4.33 0.0595935
4.34 0.0660089
4.35 0.0725761
4.36 0.0792249
4.37 0.0858879
4.38 0.092481
4.39 0.0989101
4.4 0.105099
4.41 0.110963
4.42 0.116397
4.43 0.12126
4.44 0.12552
4.45 0.129099
4.46 0.131919
4.47 0.133773
4.48 0.134725
4.49 0.13473
4.5 0.133751
4.51 0.13164
4.52 0.128469
4.53 0.124288
4.54 0.119117
4.55 0.112921
4.56 0.105766
4.57 0.0977967
4.58 0.0890958
4.59 0.0797354
4.6 0.0697989
4.61 0.0594745
4.62 0.0488833
4.63 0.0381499
4.64 0.0274185
4.65 0.016831
4.66 0.00650798
4.67 -0.00343572
4.68 -0.0128223
4.69 -0.0215845
4.7 -0.0296622
4.71 -0.0369901
4.72 -0.0434494
4.73 -0.0490072
4.74 -0.0537148
4.75 -0.0575779
4.76 -0.0605848
4.77 -0.0627241
4.78 -0.0641486
4.79 -0.0649279
4.8 -0.0651411
4.81 -0.0648208
4.82 -0.0641503
4.83 -0.0632322
4.84 -0.0621705
4.85 -0.0610765
4.86 -0.0600684
4.87 -0.0592399
4.88 -0.0586764
4.89 -0.0584881
4.9 -0.0587478
4.91 -0.0594768
4.92 -0.0607108
4.93 -0.0624953
4.94 -0.0648762
4.95 -0.0677824
4.96 -0.0711922
4.97 -0.0750739
4.98 -0.0794395
4.99 -0.0841615
5 -0.0891775
5.01 -0.0944195
5.02 -0.0998259
5.03 -0.105298
5.04 -0.110759
5.05 -0.116136
5.06 -0.121345
5.07 -0.126313
5.08 -0.130999
5.09 -0.135354
5.1 -0.139322
5.11 -0.142838
5.12 -0.145924
5.13 -0.148569
5.14 -0.150763
5.15 -0.152443
5.16 -0.153686
5.17 -0.154506
5.18 -0.15492
5.19 -0.154903
5.2 -0.154515
5.21 -0.153791
5.22 -0.152753
5.23 -0.151397
5.24 -0.149746
5.25 -0.147836
5.26 -0.145677
5.27 -0.143262
5.28 -0.14058
5.29 -0.137654
5.3 -0.134481
5.31 -0.131049
5.32 -0.127309
5.33 -0.123289
5.34 -0.118977
5.35 -0.114363
5.36 -0.109396
5.37 -0.104101
5.38 -0.098484
5.39 -0.0925487
5.4 -0.0862757
5.41 -0.0796868
5.42 -0.0728248
5.43 -0.0657166
5.44 -0.0583867
5.45 -0.0508714
5.46 -0.0432398
5.47 -0.0355433
5.48 -0.0278381
5.49 -0.0202009
5.5 -0.0126935
5.51 -0.00537999
5.52 0.00167514
5.53 0.00835803
5.54 0.0146303
5.55 0.0204441
5.56 0.025746
5.57 0.030433
5.58 0.0344677
5.59 0.0378571
5.6 0.0405764
5.61 0.0425736
5.62 0.0438
5.63 0.044335
5.64 0.0441916
5.65 0.0433847
5.66 0.041864
5.67 0.0397677
5.68 0.0371441
5.69 0.0340484
5.7 0.0304962
5.71 0.0266066
5.72 0.022462
5.73 0.0181363
5.74 0.0137023
5.75 0.00925244
5.76 0.00486743
5.77 0.000619287
5.78 -0.00340888
5.79 -0.00712656
5.8 -0.0105008
5.81 -0.0134814
5.82 -0.0160197
5.83 -0.0180127
5.84 -0.0195034
5.85 -0.0204779
5.86 -0.0209319
5.87 -0.0208036
5.88 -0.0201664
5.89 -0.0190609
5.9 -0.0175224
5.91 -0.0155628
5.92 -0.0132541
5.93 -0.0106807
5.94 -0.00790627
5.95 -0.00499555
5.96 -0.00202883
5.97 0.000909946
5.98 0.0037501
5.99 0.00641969
6 0.00881294
6.01 0.0108988
6.02 0.0126257
6.03 0.0139502
6.04 0.0147751
6.05 0.0151219
6.06 0.0149914
6.07 0.0143839
6.08 0.0132693
6.09 0.0116915
6.1 0.00971874
6.11 0.00739972
6.12 0.00478101
6.13 0.00193308
6.14 -0.00103815
6.15 -0.00404979
6.16 -0.00701249
6.17 -0.00980386
6.18 -0.0123437
6.19 -0.0145436
6.2 -0.0163182
6.21 -0.0175087
6.22 -0.0180901
6.23 -0.0180134
6.24 -0.0172274
6.25 -0.0156169
6.26 -0.0131762
6.27 -0.0099434
6.28 -0.00592141
6.29 -0.00108473
6.3 0.00456375
6.31 0.0108981
6.32 0.0178604
6.33 0.0253903
6.34 0.0334566
6.35 0.0418944
6.36 0.0506106
6.37 0.0595084
6.38 0.0684865
6.39 0.0774228
6.4 0.0862195
6.41 0.0947839
6.42 0.102989
6.43 0.110754
6.44 0.118029
6.45 0.124754
6.46 0.130842
6.47 0.136219
6.48 0.140923
6.49 0.144938
6.5 0.148246
6.51 0.150772
6.52 0.152628
6.53 0.153839
6.54 0.154436
6.55 0.154379
6.56 0.153783
6.57 0.152702
6.58 0.151183
6.59 0.149232
6.6 0.146917
6.61 0.144301
6.62 0.14142
6.63 0.138295
6.64 0.134951
6.65 0.131433
6.66 0.127758
6.67 0.123937
6.68 0.119964
6.69 0.115863
6.7 0.111635
6.71 0.107279
6.72 0.102773
6.73 0.098131
6.74 0.0933521
6.75 0.088435
6.76 0.0833668
6.77 0.0781579
6.78 0.0728239
6.79 0.0673762
6.8 0.0618254
6.81 0.0561925
6.82 0.0505119
6.83 0.0448123
6.84 0.0391272
6.85 0.0335042
6.86 0.0279791
6.87 0.0225922
6.88 0.0173848
6.89 0.0124358
6.9 0.0077639
6.91 0.00340414
6.92 -0.000606809
6.93 -0.00419272
6.94 -0.00733594
6.95 -0.0100342
6.96 -0.0122674
6.97 -0.0139894
6.98 -0.0151719
6.99 -0.0158584
7 -0.0160504
7.01 -0.015743
7.02 -0.0148951
7.03 -0.0135896
7.04 -0.0118462
7.05 -0.00968816
7.06 -0.00708951
7.07 -0.00413206
7.08 -0.000852774
7.09 0.00271646
7.1 0.00656582
7.11 0.0106434
7.12 0.0149012
7.13 0.0193051
7.14 0.0238256
7.15 0.0284246
7.16 0.033058
7.17 0.037692
7.18 0.0422911
7.19 0.046808
7.2 0.0512147
7.21 0.0554769
7.22 0.0595608
7.23 0.0633961
7.24 0.066972
7.25 0.070258
7.26 0.0732209
7.27 0.0757872
7.28 0.0779385
7.29 0.0796656
7.3 0.0809419
7.31 0.0817104
7.32 0.0819331
7.33 0.0816399
7.34 0.08082
7.35 0.0794537
7.36 0.0774843
7.37 0.0749908
7.38 0.0719872
7.39 0.0684935
7.4 0.0644732
7.41 0.0600263
7.42 0.0551999
7.43 0.0500398
7.44 0.044573
7.45 0.03888
7.46 0.0330349
7.47 0.0270991
7.48 0.0211381
7.49 0.0152278
7.5 0.00943082
7.51 0.00380595
7.52 -0.00158357
7.53 -0.00664976
7.54 -0.0113811
7.55 -0.0157406
7.56 -0.0196983
7.57 -0.0231666
7.58 -0.0261892
7.59 -0.0287675
7.6 -0.0309059
7.61 -0.0325724
7.62 -0.0338159
7.63 -0.0346868
7.64 -0.0352195
7.65 -0.035436
7.66 -0.0353832
7.67 -0.0351344
7.68 -0.0347381
7.69 -0.0342417
7.7 -0.0336957
7.71 -0.0331568
7.72 -0.0326667
7.73 -0.0322631
7.74 -0.0320009
7.75 -0.0318926
7.76 -0.0319561
7.77 -0.032204
7.78 -0.0326633
7.79 -0.0333205
7.8 -0.0341574
7.81 -0.0351592
7.82 -0.0363144
7.83 -0.0375952
7.84 -0.0389594
7.85 -0.0403749
7.86 -0.041807
7.87 -0.0432132
7.88 -0.0445577
7.89 -0.0458074
7.9 -0.0469314
7.91 -0.0478746
7.92 -0.0486325
7.93 -0.0491882
7.94 -0.0495281
7.95 -0.0496185
7.96 -0.0494715
7.97 -0.0491027
7.98 -0.0485221
7.99 -0.0477323
8 -0.0467556
8.01 -0.045635
8.02 -0.0444001
8.03 -0.0430826
8.04 -0.0417197
8.05 -0.0403583
8.06 -0.0390367
8.07 -0.0377931
8.08 -0.0366882
8.09 -0.0357455
8.1 -0.0349972
8.11 -0.034474
8.12 -0.0342342
8.13 -0.0342875
8.14 -0.0346397
8.15 -0.0353041
8.16 -0.0363131
8.17 -0.0376748
8.18 -0.0393587
8.19 -0.0413577
8.2 -0.0436698
8.21 -0.046302
8.22 -0.0491952
8.23 -0.0523242
8.24 -0.055661
8.25 -0.0591965
8.26 -0.0628664
8.27 -0.0666333
8.28 -0.0704596
8.29 -0.0743044
8.3 -0.0781203
8.31 -0.0818672
8.32 -0.0855059
8.33 -0.0889838
8.34 -0.0922544
8.35 -0.0952951
8.36 -0.0980723
8.37 -0.100542
8.38 -0.102642
8.39 -0.104383
8.4 -0.105742
8.41 -0.106698
8.42 -0.107166
8.43 -0.107194
8.44 -0.106773
8.45 -0.105896
8.46 -0.104505
8.47 -0.102633
8.48 -0.100304
8.49 -0.0975241
8.5 -0.0942696
8.51 -0.0905528
8.52 -0.0864264
8.53 -0.081909
8.54 -0.0770089
8.55 -0.0717244
8.56 -0.0661268
8.57 -0.0602449
8.58 -0.0541089
8.59 -0.0477219
8.6 -0.0411564
8.61 -0.0344491
8.62 -0.0276371
8.63 -0.020756
8.64 -0.0138567
8.65 -0.00698238
8.66 -0.000174041
8.67 0.00651485
8.68 0.0130334
8.69 0.0193494
8.7 0.0254215
8.71 0.0311964
8.72 0.0366002
8.73 0.0416306
8.74 0.0462511
8.75 0.0504272
8.76 0.0540463
8.77 0.0571515
8.78 0.0597184
8.79 0.0617257
8.8 0.0630857
8.81 0.0638299
8.82 0.0639758
8.83 0.0635222
8.84 0.0624272
8.85 0.0607035
8.86 0.0584171
8.87 0.0555919
8.88 0.0522387
8.89 0.0483625
8.9 0.0440664
8.91 0.0393985
8.92 0.0344112
8.93 0.0291289
8.94 0.0236618
8.95 0.0180735
8.96 0.0124298
8.97 0.00680696
8.98 0.00128103
8.99 -0.00408358
9 -0.00922366
9.01 -0.014051
9.02 -0.0184993
9.03 -0.0225422
9.04 -0.0261356
9.05 -0.0292202
9.06 -0.0317209
9.07 -0.0336757
9.08 -0.0350717
9.09 -0.0359027
9.1 -0.0360853
9.11 -0.0357223
9.12 -0.0348342
9.13 -0.0334487
9.14 -0.031548
9.15 -0.0292187
9.16 -0.0265243
9.17 -0.0235151
9.18 -0.0202276
9.19 -0.01673
9.2 -0.0130984
9.21 -0.00938916
9.22 -0.00565948
9.23 -0.0019747
9.24 0.00161414
9.25 0.00506056
9.26 0.00832132
9.27 0.011319
9.28 0.014053
9.29 0.0164971
9.3 0.0186304
9.31 0.0203954
9.32 0.0218095
9.33 0.0228805
9.34 0.0236086
9.35 0.0239707
9.36 0.02398
9.37 0.0236745
9.38 0.0230694
9.39 0.0221705
9.4 0.0209822
9.41 0.0195576
9.42 0.0179188
9.43 0.0160878
9.44 0.0140668
9.45 0.0119081
9.46 0.00963605
9.47 0.00727487
9.48 0.00484434
9.49 0.00237912
9.5 -9.32165e-05
9.51 -0.00254666
9.52 -0.00494822
9.53 -0.00726549
9.54 -0.00947394
9.55 -0.0115446
9.56 -0.0134384
9.57 -0.0151062
9.58 -0.0165372
9.59 -0.0177009
9.6 -0.018565
9.61 -0.0190477
9.62 -0.0191685
9.63 -0.0189023
9.64 -0.0182266
9.65 -0.0170658
9.66 -0.0154436
9.67 -0.0133653
9.68 -0.0108273
9.69 -0.0077925
9.7 -0.0042787
9.71 -0.00033631
9.72 0.00401085
9.73 0.00874812
9.74 0.013852
9.75 0.0192356
9.76 0.0248473
9.77 0.0306311
9.78 0.0365311
9.79 0.0424577
9.8 0.0483426
9.81 0.0541165
9.82 0.0596777
9.83 0.0649657
9.84 0.0699216
9.85 0.0744846
9.86 0.0785542
9.87 0.0820802
9.88 0.0850556
9.89 0.0874485
9.9 0.0892054
9.91 0.0902735
9.92 0.0907196
9.93 0.0905525
9.94 0.089785
9.95 0.0883702
9.96 0.0864355
9.97 0.0840269
9.98 0.0811974
9.99 0.0779664
10 0.0744431
10.01 0.0707049
10.02 0.0668198
10.03 0.0628556
10.04 0.0588933
10.05 0.0550011
10.06 0.0512383
10.07 0.0476713
10.08 0.0443698
10.09 0.0413512
10.1 0.038647
10.11 0.0362842
10.12 0.0343277
10.13 0.0327303
10.14 0.0314878
10.15 0.0305881
10.16 0.0300513
10.17 0.0298129
10.18 0.0298302
10.19 0.0300652
10.2 0.0304875
10.21 0.0310392
10.22 0.0316622
10.23 0.0323089
10.24 0.0329289
10.25 0.0334649
10.26 0.0338783
10.27 0.0341304
10.28 0.0341832
10.29 0.0339711
10.3 0.0335005
10.31 0.0327523
10.32 0.0317129
10.33 0.0303334
10.34 0.0286431
10.35 0.0266534
10.36 0.0243724
10.37 0.0217877
10.38 0.0189267
10.39 0.0158282
10.4 0.0125156
10.41 0.00900563
10.42 0.00532251
10.43 0.0015145
10.44 -0.00238888
10.45 -0.00635829
10.46 -0.0103639
10.47 -0.0143681
10.48 -0.0183429
10.49 -0.0222609
10.5 -0.0260816
10.51 -0.0297865
10.52 -0.0333551
10.53 -0.0367667
10.54 -0.0399837
10.55 -0.0429911
10.56 -0.0457856
10.57 -0.0483543
10.58 -0.0506724
10.59 -0.0527171
10.6 -0.0545069
10.61 -0.0560373
10.62 -0.0573018
10.63 -0.0582663
10.64 -0.0589712
10.65 -0.0594212
10.66 -0.0596229
10.67 -0.0595542
10.68 -0.0592548
10.69 -0.0587442
10.7 -0.0580377
10.71 -0.0571375
10.72 -0.0560719
10.73 -0.0548727
10.74 -0.0535615
10.75 -0.0521569
10.76 -0.0506829
10.77 -0.0491708
10.78 -0.0476428
10.79 -0.0461209
10.8 -0.0446317
10.81 -0.0431917
10.82 -0.041817
10.83 -0.0405214
10.84 -0.0393299
10.85 -0.0382411
10.86 -0.0372577
10.87 -0.0363812
10.88 -0.0356203
10.89 -0.0349656
10.9 -0.0344027
10.91 -0.0339211
10.92 -0.0335114
10.93 -0.0331585
10.94 -0.0328393
10.95 -0.0325367
10.96 -0.0322329
10.97 -0.031905
10.98 -0.0315374
10.99 -0.0311145
11 -0.0306225
11.01 -0.030037
11.02 -0.0293573
11.03 -0.0285793
11.04 -0.0277002
11.05 -0.02671
11.06 -0.0256173
11.07 -0.0244354
11.08 -0.0231743
11.09 -0.0218438
11.1 -0.0204604
11.11 -0.0190481
11.12 -0.0176264
11.13 -0.0162161
11.14 -0.0148456
11.15 -0.0135335
11.16 -0.0123001
11.17 -0.0111648
11.18 -0.0101639
11.19 -0.0093008
11.2 -0.00858594
11.21 -0.00802939
11.22 -0.00765552
11.23 -0.00746158
11.24 -0.00743765
11.25 -0.0075806
11.26 -0.00789355
11.27 -0.00837087
11.28 -0.00898438
11.29 -0.00971937
11.3 -0.0105611
11.31 -0.0114982
11.32 -0.0124972
11.33 -0.0135381
11.34 -0.0146004
11.35 -0.0156616
11.36 -0.0166997
11.37 -0.0176965
11.38 -0.0186356
11.39 -0.0194928
11.4 -0.0202565
11.41 -0.0209206
11.42 -0.0214766
11.43 -0.0219111
11.44 -0.0222155
11.45 -0.0223998
11.46 -0.0224648
11.47 -0.0224102
11.48 -0.0222281
11.49 -0.0219405
11.5 -0.0215541
11.51 -0.021077
11.52 -0.0205071
11.53 -0.0198653
11.54 -0.0191622
11.55 -0.0184075
11.56 -0.0176072
11.57 -0.0167742
11.58 -0.0159201
11.59 -0.0150536
11.6 -0.0141837
11.61 -0.0133205
11.62 -0.0124726
11.63 -0.0116479
11.64 -0.0108556
11.65 -0.0101096
11.66 -0.00941374
11.67 -0.00877657
11.68 -0.00820688
11.69 -0.00772619
11.7 -0.00733513
11.71 -0.00704216
11.72 -0.00685703
11.73 -0.00680301
11.74 -0.00688543
11.75 -0.00710709
11.76 -0.00747676
11.77 -0.00801334
11.78 -0.00872967
11.79 -0.00961636
11.8 -0.0106773
11.81 -0.0119195
11.82 -0.0133616
