[DEFAULT]

version = diffpy.pdfgetx-2.2.1

# input and output specifications
dataformat = twotheta
inputfile = Synthetic_CSH_CSH_pdf_ramp_200_05_normalized.chi
backgroundfiles = quartz_030degC_normalized.chi
outputtype = gr

# PDF calculation setup
mode = xray
wavelength = 0.2113
twothetazero = 0
composition = CaO SiO2
bgscales = 1.0
rpoly = 0.9
qmaxinst = 23.7031
qmin = 0.5
qmax = 20
rmin = 0
rmax = 60
rstep = 0.01

# End of config --------------------------------------------------------------

#### start data
#S 1
#L r(Å)  G(Å$^{-2}$)
0 0
0.01 -0.00192419
0.02 -0.00379013
0.03 -0.0055479
0.04 -0.00714984
0.05 -0.00852241
0.06 -0.00963644
0.07 -0.0104672
0.08 -0.0109881
0.09 -0.0111518
0.1 -0.0109463
0.11 -0.0103974
0.12 -0.00951338
0.13 -0.00829945
0.14 -0.00676535
0.15 -0.00498616
0.16 -0.0030078
0.17 -0.000883405
0.18 0.00133041
0.19 0.00354648
0.2 0.00569505
0.21 0.00770478
0.22 0.00947014
0.23 0.0109298
0.24 0.0120294
0.25 0.0127128
0.26 0.0128919
0.27 0.0125278
0.28 0.0116386
0.29 0.0102203
0.3 0.00826392
0.31 0.00576936
0.32 0.00284808
0.33 -0.000432109
0.34 -0.00398796
0.35 -0.00773012
0.36 -0.0115034
0.37 -0.0151818
0.38 -0.0186322
0.39 -0.0216542
0.4 -0.02412
0.41 -0.0259097
0.42 -0.0268969
0.43 -0.0268804
0.44 -0.0257505
0.45 -0.0235044
0.46 -0.0200897
0.47 -0.0154258
0.48 -0.00943121
0.49 -0.00228227
0.5 0.00595512
0.51 0.0151908
0.52 0.0254115
0.53 0.0363119
0.54 0.0477153
0.55 0.0594271
0.56 0.0712222
0.57 0.0828383
0.58 0.0940488
0.59 0.104632
0.6 0.114282
0.61 0.122769
0.62 0.12998
0.63 0.13576
0.64 0.139904
0.65 0.142187
0.66 0.142736
0.67 0.14153
0.68 0.138573
0.69 0.133673
0.7 0.127187
0.71 0.119234
0.72 0.109958
0.73 0.0994022
0.74 0.0878858
0.75 0.0756433
0.76 0.0628754
0.77 0.0497718
0.78 0.0365667
0.79 0.0234587
0.8 0.0106082
0.81 -0.00182034
0.82 -0.0136607
0.83 -0.0248806
0.84 -0.035427
0.85 -0.0452685
0.86 -0.0543087
0.87 -0.0626881
0.88 -0.0704607
0.89 -0.0776979
0.9 -0.0844385
0.91 -0.0908336
0.92 -0.0969941
0.93 -0.103014
0.94 -0.108981
0.95 -0.114982
0.96 -0.121073
0.97 -0.127285
0.98 -0.133635
0.99 -0.140112
1 -0.146656
1.01 -0.153202
1.02 -0.159662
1.03 -0.165889
1.04 -0.171779
1.05 -0.177209
1.06 -0.182052
1.07 -0.186078
1.08 -0.189233
1.09 -0.191451
1.1 -0.192664
1.11 -0.192739
1.12 -0.191693
1.13 -0.189638
1.14 -0.186646
1.15 -0.182794
1.16 -0.178216
1.17 -0.173185
1.18 -0.167912
1.19 -0.16263
1.2 -0.157659
1.21 -0.15324
1.22 -0.149621
1.23 -0.147033
1.24 -0.145872
1.25 -0.146207
1.26 -0.148123
1.27 -0.151697
1.28 -0.157097
1.29 -0.164224
1.3 -0.172842
1.31 -0.182764
1.32 -0.193781
1.33 -0.205564
1.34 -0.217631
1.35 -0.229567
1.36 -0.240908
1.37 -0.250961
1.38 -0.25935
1.39 -0.265601
1.4 -0.269263
1.41 -0.26947
1.42 -0.26613
1.43 -0.259046
1.44 -0.248009
1.45 -0.232514
1.46 -0.212654
1.47 -0.188806
1.48 -0.161175
1.49 -0.129902
1.5 -0.0953173
1.51 -0.0583078
1.52 -0.0194747
1.53 0.020518
1.54 0.060878
1.55 0.100692
1.56 0.139176
1.57 0.175546
1.58 0.208555
1.59 0.237702
1.6 0.262423
1.61 0.282155
1.62 0.295875
1.63 0.303334
1.64 0.304686
1.65 0.299848
1.66 0.288534
1.67 0.270669
1.68 0.247233
1.69 0.218673
1.7 0.185481
1.71 0.147912
1.72 0.107346
1.73 0.0645757
1.74 0.0204258
1.75 -0.0242221
1.76 -0.0683639
1.77 -0.111198
1.78 -0.151984
1.79 -0.189731
1.8 -0.22385
1.81 -0.25407
1.82 -0.280049
1.83 -0.301301
1.84 -0.317506
1.85 -0.329185
1.86 -0.336505
1.87 -0.339678
1.88 -0.338679
1.89 -0.334559
1.9 -0.327858
1.91 -0.31916
1.92 -0.308972
1.93 -0.298153
1.94 -0.287332
1.95 -0.277068
1.96 -0.26802
1.97 -0.260653
1.98 -0.255221
1.99 -0.251957
2 -0.251125
2.01 -0.252837
2.02 -0.256737
2.03 -0.262606
2.04 -0.27015
2.05 -0.279044
2.06 -0.288568
2.07 -0.298172
2.08 -0.307268
2.09 -0.315008
2.1 -0.320833
2.11 -0.324187
2.12 -0.324529
2.13 -0.320989
2.14 -0.313235
2.15 -0.301195
2.16 -0.284679
2.17 -0.263335
2.18 -0.237036
2.19 -0.206422
2.2 -0.171786
2.21 -0.13346
2.22 -0.0916564
2.23 -0.0474698
2.24 -0.00156686
2.25 0.0453358
2.26 0.0924145
2.27 0.13877
2.28 0.183645
2.29 0.226309
2.3 0.265721
2.31 0.301279
2.32 0.332638
2.33 0.359368
2.34 0.380813
2.35 0.396521
2.36 0.406906
2.37 0.411988
2.38 0.411788
2.39 0.406003
2.4 0.395689
2.41 0.381265
2.42 0.363216
2.43 0.341717
2.44 0.317801
2.45 0.292114
2.46 0.265246
2.47 0.237769
2.48 0.210344
2.49 0.183487
2.5 0.157631
2.51 0.133248
2.52 0.110738
2.53 0.0901587
2.54 0.0716306
2.55 0.0552494
2.56 0.0412137
2.57 0.0291243
2.58 0.0188153
2.59 0.0100745
2.6 0.00280181
2.61 -0.00348596
2.62 -0.00910274
2.63 -0.0143411
2.64 -0.0195018
2.65 -0.0248916
2.66 -0.0307336
2.67 -0.03721
2.68 -0.0445145
2.69 -0.0527722
2.7 -0.0619282
2.71 -0.0719545
2.72 -0.0827914
2.73 -0.0943651
2.74 -0.106398
2.75 -0.118686
2.76 -0.131002
2.77 -0.143033
2.78 -0.154524
2.79 -0.165232
2.8 -0.174922
2.81 -0.183231
2.82 -0.190008
2.83 -0.195181
2.84 -0.198648
2.85 -0.200233
2.86 -0.199874
2.87 -0.197782
2.88 -0.194045
2.89 -0.188752
2.9 -0.181951
2.91 -0.174041
2.92 -0.165245
2.93 -0.1558
2.94 -0.145932
2.95 -0.135972
2.96 -0.126162
2.97 -0.116725
2.98 -0.107945
2.99 -0.0999893
3 -0.0929608
3.01 -0.0869584
3.02 -0.0821208
3.03 -0.0785012
3.04 -0.0759752
3.05 -0.0744869
3.06 -0.0739727
3.07 -0.0743829
3.08 -0.075452
3.09 -0.0770216
3.1 -0.0789233
3.11 -0.0809821
3.12 -0.0829839
3.13 -0.084765
3.14 -0.086176
3.15 -0.0870171
3.16 -0.0871901
3.17 -0.0866407
3.18 -0.085312
3.19 -0.0831158
3.2 -0.0800294
3.21 -0.0761509
3.22 -0.0715242
3.23 -0.0661924
3.24 -0.0601828
3.25 -0.0536702
3.26 -0.046746
3.27 -0.0395019
3.28 -0.0320031
3.29 -0.0243697
3.3 -0.0166689
3.31 -0.00895117
3.32 -0.00125439
3.33 0.00640736
3.34 0.0140431
3.35 0.0216783
3.36 0.0293615
3.37 0.037164
3.38 0.0451522
3.39 0.053404
3.4 0.0620149
3.41 0.0711224
3.42 0.0807547
3.43 0.090978
3.44 0.101846
3.45 0.113501
3.46 0.125862
3.47 0.138912
3.48 0.152619
3.49 0.166981
3.5 0.181862
3.51 0.197123
3.52 0.212631
3.53 0.228233
3.54 0.243727
3.55 0.258931
3.56 0.273659
3.57 0.2877
3.58 0.300759
3.59 0.312756
3.6 0.32353
3.61 0.33294
3.62 0.340623
3.63 0.346686
3.64 0.351078
3.65 0.353758
3.66 0.354524
3.67 0.353512
3.68 0.350857
3.69 0.346633
3.7 0.340841
3.71 0.333607
3.72 0.325194
3.73 0.315754
3.74 0.30542
3.75 0.294317
3.76 0.282711
3.77 0.270759
3.78 0.258609
3.79 0.246411
3.8 0.23431
3.81 0.222411
3.82 0.210804
3.83 0.199608
3.84 0.188858
3.85 0.17857
3.86 0.16876
3.87 0.159467
3.88 0.150685
3.89 0.142349
3.9 0.134432
3.91 0.126914
3.92 0.119783
3.93 0.112959
3.94 0.106408
3.95 0.100105
3.96 0.0940588
3.97 0.088221
3.98 0.0825859
3.99 0.0771562
4 0.0719699
4.01 0.0670334
4.02 0.062363
4.03 0.0579894
4.04 0.0539748
4.05 0.0503655
4.06 0.0471691
4.07 0.0444203
4.08 0.0421689
4.09 0.0404894
4.1 0.0393408
4.11 0.0387354
4.12 0.0386781
4.13 0.0392501
4.14 0.0403536
4.15 0.0419665
4.16 0.0440617
4.17 0.0466543
4.18 0.0496652
4.19 0.0530327
4.2 0.0567113
4.21 0.0606717
4.22 0.0648592
4.23 0.0692087
4.24 0.0736783
4.25 0.0782313
4.26 0.0828316
4.27 0.0874412
4.28 0.0920353
4.29 0.0965932
4.3 0.101087
4.31 0.105509
4.32 0.109847
4.33 0.114092
4.34 0.118218
4.35 0.122218
4.36 0.126081
4.37 0.129789
4.38 0.133301
4.39 0.136583
4.4 0.139616
4.41 0.142359
4.42 0.144752
4.43 0.146707
4.44 0.148212
4.45 0.14921
4.46 0.149646
4.47 0.149357
4.48 0.148383
4.49 0.146677
4.5 0.144196
4.51 0.140808
4.52 0.136552
4.53 0.131449
4.54 0.125503
4.55 0.118662
4.56 0.110965
4.57 0.102522
4.58 0.0933899
4.59 0.0836168
4.6 0.0732566
4.61 0.0624725
4.62 0.0513628
4.63 0.0400303
4.64 0.0285795
4.65 0.0171462
4.66 0.00583281
4.67 -0.00526346
4.68 -0.016005
4.69 -0.026327
4.7 -0.0361761
4.71 -0.0454998
4.72 -0.0542102
4.73 -0.0622839
4.74 -0.0697602
4.75 -0.0766485
4.76 -0.0829491
4.77 -0.0886666
4.78 -0.0939164
4.79 -0.0987574
4.8 -0.103254
4.81 -0.107448
4.82 -0.111462
4.83 -0.115369
4.84 -0.119241
4.85 -0.123153
4.86 -0.127171
4.87 -0.131342
4.88 -0.135704
4.89 -0.140305
4.9 -0.145163
4.91 -0.150262
4.92 -0.155593
4.93 -0.161146
4.94 -0.166898
4.95 -0.172786
4.96 -0.178764
4.97 -0.184781
4.98 -0.190773
4.99 -0.19668
5 -0.202448
5.01 -0.208025
5.02 -0.213328
5.03 -0.218328
5.04 -0.223001
5.05 -0.227318
5.06 -0.231225
5.07 -0.234712
5.08 -0.237804
5.09 -0.240503
5.1 -0.2428
5.11 -0.244687
5.12 -0.246224
5.13 -0.247431
5.14 -0.248327
5.15 -0.24889
5.16 -0.249182
5.17 -0.249217
5.18 -0.249003
5.19 -0.24851
5.2 -0.247756
5.21 -0.246737
5.22 -0.245437
5.23 -0.243804
5.24 -0.241806
5.25 -0.239432
5.26 -0.236647
5.27 -0.233389
5.28 -0.229581
5.29 -0.225239
5.3 -0.220332
5.31 -0.214826
5.32 -0.208609
5.33 -0.201763
5.34 -0.194285
5.35 -0.186183
5.36 -0.177402
5.37 -0.168035
5.38 -0.158146
5.39 -0.147786
5.4 -0.13699
5.41 -0.12585
5.42 -0.114476
5.43 -0.102955
5.44 -0.0913787
5.45 -0.0798606
5.46 -0.068498
5.47 -0.0573829
5.48 -0.0466084
5.49 -0.0363306
5.5 -0.0265705
5.51 -0.0173954
5.52 -0.00886357
5.53 -0.00111835
5.54 0.00586803
5.55 0.0120932
5.56 0.0175444
5.57 0.0221503
5.58 0.0259382
5.59 0.0289831
5.6 0.0313143
5.61 0.0329364
5.62 0.0338643
5.63 0.0342212
5.64 0.0340607
5.65 0.0334348
5.66 0.0323551
5.67 0.0309463
5.68 0.0292656
5.69 0.0273687
5.7 0.0252943
5.71 0.0231158
5.72 0.0208834
5.73 0.0186389
5.74 0.0164258
5.75 0.0142826
5.76 0.0122353
5.77 0.010308
5.78 0.00852907
5.79 0.00692622
5.8 0.00549549
5.81 0.00424524
5.82 0.00318301
5.83 0.00233625
5.84 0.00167569
5.85 0.00119685
5.86 0.000892611
5.87 0.000773479
5.88 0.000807377
5.89 0.000974277
5.9 0.00125626
5.91 0.00163989
5.92 0.00209589
5.93 0.00259371
5.94 0.00310751
5.95 0.00360831
5.96 0.00406161
5.97 0.0044421
5.98 0.00472355
5.99 0.00487915
6 0.00486384
6.01 0.00467839
6.02 0.0043085
6.03 0.00374453
6.04 0.00295567
6.05 0.00196677
6.06 0.000793126
6.07 -0.00054835
6.08 -0.00204445
6.09 -0.00365296
6.1 -0.00532515
6.11 -0.00701526
6.12 -0.0086668
6.13 -0.0102079
6.14 -0.0115823
6.15 -0.0127269
6.16 -0.0135718
6.17 -0.0139961
6.18 -0.0139834
6.19 -0.0134756
6.2 -0.0124196
6.21 -0.0106817
6.22 -0.00828494
6.23 -0.00521555
6.24 -0.00145442
6.25 0.0030749
6.26 0.00834577
6.27 0.0142979
6.28 0.0209055
6.29 0.0281652
6.3 0.0360487
6.31 0.0444364
6.32 0.0532652
6.33 0.0624709
6.34 0.0720046
6.35 0.0817382
6.36 0.091593
6.37 0.101491
6.38 0.111339
6.39 0.121058
6.4 0.130581
6.41 0.139845
6.42 0.148755
6.43 0.157264
6.44 0.16535
6.45 0.172979
6.46 0.180092
6.47 0.186642
6.48 0.192665
6.49 0.198152
6.5 0.203086
6.51 0.2074
6.52 0.21117
6.53 0.214398
6.54 0.217088
6.55 0.219165
6.56 0.220696
6.57 0.221689
6.58 0.222142
6.59 0.221996
6.6 0.221264
6.61 0.21997
6.62 0.218108
6.63 0.21563
6.64 0.212505
6.65 0.208784
6.66 0.204464
6.67 0.199531
6.68 0.193921
6.69 0.187729
6.7 0.180973
6.71 0.173677
6.72 0.165806
6.73 0.157467
6.74 0.148719
6.75 0.139615
6.76 0.130196
6.77 0.120551
6.78 0.110772
6.79 0.100933
6.8 0.091118
6.81 0.0814239
6.82 0.071924
6.83 0.0626923
6.84 0.0538079
6.85 0.0453931
6.86 0.037455
6.87 0.0300425
6.88 0.0231965
6.89 0.0170376
6.9 0.0115159
6.91 0.00663181
6.92 0.00238821
6.93 -0.00115636
6.94 -0.00404662
6.95 -0.00634023
6.96 -0.00806342
6.97 -0.00921474
6.98 -0.00981656
6.99 -0.00995579
7 -0.00966758
7.01 -0.00897791
7.02 -0.00788325
7.03 -0.00646499
7.04 -0.00474856
7.05 -0.00275569
7.06 -0.00046936
7.07 0.00206229
7.08 0.00482516
7.09 0.00781204
7.1 0.0110399
7.11 0.0144935
7.12 0.0181562
7.13 0.0220226
7.14 0.0260967
7.15 0.0303704
7.16 0.0348084
7.17 0.0393888
7.18 0.0440859
7.19 0.0488683
7.2 0.0536795
7.21 0.0584716
7.22 0.0631911
7.23 0.0677517
7.24 0.0720991
7.25 0.0761696
7.26 0.079896
7.27 0.0831614
7.28 0.0859111
7.29 0.0881085
7.3 0.0896996
7.31 0.0905914
7.32 0.09072
7.33 0.0901224
7.34 0.0887843
7.35 0.0866834
7.36 0.0837532
7.37 0.0801184
7.38 0.0758159
7.39 0.0708934
7.4 0.0653364
7.41 0.0592971
7.42 0.0528597
7.43 0.0461061
7.44 0.0391068
7.45 0.0319766
7.46 0.0248132
7.47 0.0177002
7.48 0.0107306
7.49 0.00399546
7.5 -0.00245667
7.51 -0.00857265
7.52 -0.0142979
7.53 -0.0195532
7.54 -0.0243723
7.55 -0.0287483
7.56 -0.0326845
7.57 -0.0361338
7.58 -0.0391807
7.59 -0.0418617
7.6 -0.0442138
7.61 -0.0462518
7.62 -0.0480436
7.63 -0.0496483
7.64 -0.0511094
7.65 -0.0524636
7.66 -0.0537532
7.67 -0.0550173
7.68 -0.0562804
7.69 -0.0575615
7.7 -0.0588754
7.71 -0.0602214
7.72 -0.0615953
7.73 -0.0629867
7.74 -0.0643776
7.75 -0.0657448
7.76 -0.0670646
7.77 -0.0683119
7.78 -0.0694475
7.79 -0.0704491
7.8 -0.0713003
7.81 -0.071983
7.82 -0.0724702
7.83 -0.0727493
7.84 -0.0728361
7.85 -0.0727359
7.86 -0.0724552
7.87 -0.0719995
7.88 -0.0714152
7.89 -0.0707311
7.9 -0.0699796
7.91 -0.0691961
7.92 -0.0684264
7.93 -0.0677074
7.94 -0.0670746
7.95 -0.066578
7.96 -0.0662441
7.97 -0.0660906
7.98 -0.0661365
7.99 -0.0664107
8 -0.0669241
8.01 -0.0676568
8.02 -0.0686018
8.03 -0.0697528
8.04 -0.0711065
8.05 -0.0726155
8.06 -0.074255
8.07 -0.0759983
8.08 -0.0778257
8.09 -0.0796967
8.1 -0.0815865
8.11 -0.0834739
8.12 -0.0853377
8.13 -0.0871653
8.14 -0.0889517
8.15 -0.0906962
8.16 -0.0924013
8.17 -0.0940793
8.18 -0.0957488
8.19 -0.0974291
8.2 -0.0991442
8.21 -0.100927
8.22 -0.102796
8.23 -0.104775
8.24 -0.106882
8.25 -0.109158
8.26 -0.11159
8.27 -0.114182
8.28 -0.116927
8.29 -0.119826
8.3 -0.122842
8.31 -0.125937
8.32 -0.129069
8.33 -0.132185
8.34 -0.135218
8.35 -0.138105
8.36 -0.140782
8.37 -0.143168
8.38 -0.145149
8.39 -0.146695
8.4 -0.147742
8.41 -0.148233
8.42 -0.148011
8.43 -0.147125
8.44 -0.145545
8.45 -0.143252
8.46 -0.140154
8.47 -0.136312
8.48 -0.131778
8.49 -0.126582
8.5 -0.120727
8.51 -0.114274
8.52 -0.10734
8.53 -0.0999964
8.54 -0.0923125
8.55 -0.0843636
8.56 -0.0762716
8.57 -0.0681199
8.58 -0.0599894
8.59 -0.0519838
8.6 -0.0441663
8.61 -0.036599
8.62 -0.0293362
8.63 -0.0224692
8.64 -0.0160121
8.65 -0.00997367
8.66 -0.00436938
8.67 0.000759444
8.68 0.00541322
8.69 0.00963749
8.7 0.0134465
8.71 0.016844
8.72 0.0198231
8.73 0.0224531
8.74 0.0247551
8.75 0.0267484
8.76 0.0284054
8.77 0.0297856
8.78 0.0308967
8.79 0.0317418
8.8 0.0322866
8.81 0.0325446
8.82 0.032516
8.83 0.0321877
8.84 0.0315182
8.85 0.0304886
8.86 0.0291103
8.87 0.0273713
8.88 0.0252486
8.89 0.0227095
8.9 0.0198039
8.91 0.016544
8.92 0.0129501
8.93 0.00900825
8.94 0.00481091
8.95 0.000406511
8.96 -0.00414883
8.97 -0.00879418
8.98 -0.0134416
8.99 -0.0180135
9 -0.0224333
9.01 -0.0265982
9.02 -0.0304177
9.03 -0.0338396
9.04 -0.0367982
9.05 -0.0392112
9.06 -0.040978
9.07 -0.0421272
9.08 -0.0426354
9.09 -0.0424911
9.1 -0.0415977
9.11 -0.040079
9.12 -0.0379682
9.13 -0.0353102
9.14 -0.0321096
9.15 -0.0284858
9.16 -0.0245332
9.17 -0.0203337
9.18 -0.0159669
9.19 -0.0115381
9.2 -0.00714378
9.21 -0.00286594
9.22 0.00120727
9.23 0.00497589
9.24 0.0084073
9.25 0.0114545
9.26 0.0140801
9.27 0.0161899
9.28 0.0178431
9.29 0.0190433
9.3 0.0198052
9.31 0.0201063
9.32 0.0200238
9.33 0.0196159
9.34 0.0189316
9.35 0.0180094
9.36 0.0169169
9.37 0.0157245
9.38 0.0144846
9.39 0.0132479
9.4 0.0120684
9.41 0.0109803
9.42 0.0100121
9.43 0.00918565
9.44 0.00853887
9.45 0.00805271
9.46 0.00772411
9.47 0.00754413
9.48 0.00751354
9.49 0.00759925
9.5 0.00777628
9.51 0.00802381
9.52 0.00832473
9.53 0.00865829
9.54 0.00900882
9.55 0.00936926
9.56 0.00973927
9.57 0.0101277
9.58 0.0105486
9.59 0.0110239
9.6 0.0115829
9.61 0.0122837
9.62 0.0131534
9.63 0.0142363
9.64 0.0155786
9.65 0.0172718
9.66 0.0193384
9.67 0.0218088
9.68 0.0247181
9.69 0.028137
9.7 0.0320805
9.71 0.0365202
9.72 0.0414513
9.73 0.0468786
9.74 0.0527951
9.75 0.0591034
9.76 0.0657477
9.77 0.0726634
9.78 0.0797896
9.79 0.0870025
9.8 0.0942112
9.81 0.101321
9.82 0.1082
9.83 0.114757
9.84 0.120911
9.85 0.126575
9.86 0.131618
9.87 0.135973
9.88 0.139629
9.89 0.142549
9.9 0.144668
9.91 0.145931
9.92 0.14643
9.93 0.146186
9.94 0.145228
9.95 0.143519
9.96 0.141223
9.97 0.138408
9.98 0.135147
9.99 0.131483
10 0.127543
10.01 0.123418
10.02 0.119183
10.03 0.114915
10.04 0.110689
10.05 0.106563
10.06 0.102581
10.07 0.0987894
10.08 0.0952278
10.09 0.0918856
10.1 0.0887632
10.11 0.0858529
10.12 0.0831587
10.13 0.0806214
10.14 0.0782067
10.15 0.0758764
10.16 0.073589
10.17 0.0712919
10.18 0.0689427
10.19 0.0665027
10.2 0.0639225
10.21 0.0611708
10.22 0.0582348
10.23 0.0550995
10.24 0.0517464
10.25 0.0481646
10.26 0.0443856
10.27 0.0404247
10.28 0.0363014
10.29 0.0320285
10.3 0.0276597
10.31 0.0232282
10.32 0.0187681
10.33 0.0143185
10.34 0.00991562
10.35 0.00558813
10.36 0.00136129
10.37 -0.00273122
10.38 -0.00667517
10.39 -0.0104706
10.4 -0.0141148
10.41 -0.0176028
10.42 -0.0209372
10.43 -0.0241472
10.44 -0.0272499
10.45 -0.0302638
10.46 -0.0332048
10.47 -0.0361063
10.48 -0.0389888
10.49 -0.0418705
10.5 -0.0447707
10.51 -0.0476998
10.52 -0.0506628
10.53 -0.0536601
10.54 -0.0566883
10.55 -0.0597328
10.56 -0.0627742
10.57 -0.0657902
10.58 -0.0687499
10.59 -0.0716134
10.6 -0.0743541
10.61 -0.0769387
10.62 -0.0793302
10.63 -0.0814633
10.64 -0.0833381
10.65 -0.08493
10.66 -0.0862194
10.67 -0.0871477
10.68 -0.0877427
10.69 -0.0880128
10.7 -0.0879653
10.71 -0.0875869
10.72 -0.0869127
10.73 -0.0859894
10.74 -0.0848494
10.75 -0.0835205
10.76 -0.0820424
10.77 -0.080473
10.78 -0.0788521
10.79 -0.0772186
10.8 -0.0756165
10.81 -0.0740766
10.82 -0.0726245
10.83 -0.0712796
10.84 -0.0700731
10.85 -0.0689969
10.86 -0.0680457
10.87 -0.0672108
10.88 -0.0664846
10.89 -0.0658382
10.9 -0.0652388
10.91 -0.0646565
10.92 -0.0640562
10.93 -0.0633967
10.94 -0.0626482
10.95 -0.0617807
10.96 -0.0607644
10.97 -0.0595536
10.98 -0.0581551
10.99 -0.0565607
11 -0.054769
11.01 -0.0527609
11.02 -0.0505758
11.03 -0.0482401
11.04 -0.0457828
11.05 -0.043234
11.06 -0.0406443
11.07 -0.0380626
11.08 -0.0355348
11.09 -0.0331166
11.1 -0.0308678
11.11 -0.0288198
11.12 -0.0270113
11.13 -0.0254815
11.14 -0.0242971
11.15 -0.0234361
11.16 -0.0229079
11.17 -0.0227138
11.18 -0.0228904
11.19 -0.0233785
11.2 -0.0241458
11.21 -0.0251595
11.22 -0.0263968
11.23 -0.0277961
11.24 -0.0292971
11.25 -0.0308488
11.26 -0.0323968
11.27 -0.0338793
11.28 -0.0352503
11.29 -0.0364669
11.3 -0.0374858
11.31 -0.0382447
11.32 -0.0387488
11.33 -0.0389827
11.34 -0.0389391
11.35 -0.03858
11.36 -0.0379504
11.37 -0.0370725
11.38 -0.0359696
11.39 -0.0346537
11.4 -0.0331732
11.41 -0.0315757
11.42 -0.0298993
11.43 -0.0281824
11.44 -0.0264693
11.45 -0.0247974
11.46 -0.0231974
11.47 -0.0216989
11.48 -0.0203396
11.49 -0.0191193
11.5 -0.0180461
11.51 -0.0171225
11.52 -0.016365
11.53 -0.0157442
11.54 -0.0152432
11.55 -0.0148437
11.56 -0.0145307
11.57 -0.0142734
11.58 -0.0140439
11.59 -0.0138196
11.6 -0.0135769
11.61 -0.0132933
11.62 -0.0129571
11.63 -0.0125589
11.64 -0.0120926
11.65 -0.0115525
11.66 -0.0109555
11.67 -0.0103144
11.68 -0.00964685
11.69 -0.00897792
11.7 -0.00833793
11.71 -0.00775614
11.72 -0.00726341
11.73 -0.00690738
11.74 -0.00671809
11.75 -0.00671749
11.76 -0.00693159
11.77 -0.00739961
11.78 -0.00814892
11.79 -0.00916738
11.8 -0.0104597
11.81 -0.0120313
11.82 -0.0139003
11.83 -0.0160144
11.84 -0.0183513
11.85 -0.0208837
11.86 -0.0235977
11.87 -0.0264297
11.88 -0.029337
11.89 -0.0322773
11.9 -0.0352011
11.91 -0.0380582
11.92 -0.0408077
11.93 -0.04341
