[DEFAULT]

version = diffpy.pdfgetx-2.2.1

# input and output specifications
dataformat = twotheta
inputfile = Synthetic_CSH_CSH_pdf_ramp_800_09_normalized.chi
backgroundfiles = quartz_030degC_normalized.chi
outputtype = gr

# PDF calculation setup
mode = xray
wavelength = 0.2113
twothetazero = 0
composition = CaO SiO2
bgscales = 1.0
rpoly = 0.9
qmaxinst = 23.7031
qmin = 0.5
qmax = 20
rmin = 0
rmax = 60
rstep = 0.01

# End of config --------------------------------------------------------------

#### start data
#S 1
#L r(Å)  G(Å$^{-2}$)
0 0
0.01 -0.00178737
0.02 -0.00351255
0.03 -0.00512267
0.04 -0.00656798
0.05 -0.00777289
0.06 -0.00871011
0.07 -0.00935811
0.08 -0.00969476
0.09 -0.00968002
0.1 -0.00931133
0.11 -0.00862328
0.12 -0.00763393
0.13 -0.00636082
0.14 -0.00482924
0.15 -0.00311716
0.16 -0.00127723
0.17 0.000632664
0.18 0.00254186
0.19 0.00437755
0.2 0.00607547
0.21 0.00757317
0.22 0.00877336
0.23 0.00963742
0.24 0.0101319
0.25 0.010222
0.26 0.00984712
0.27 0.00899659
0.28 0.00770845
0.29 0.00600033
0.3 0.00388885
0.31 0.00140339
0.32 -0.00134939
0.33 -0.00429562
0.34 -0.00735076
0.35 -0.0104071
0.36 -0.0133478
0.37 -0.0160652
0.38 -0.018449
0.39 -0.0203208
0.4 -0.0215966
0.41 -0.0221938
0.42 -0.022022
0.43 -0.020925
0.44 -0.0188337
0.45 -0.0157701
0.46 -0.0117082
0.47 -0.00659765
0.48 -0.000387485
0.49 0.00676387
0.5 0.0147937
0.51 0.0236221
0.52 0.033232
0.53 0.0433773
0.54 0.0539169
0.55 0.0646967
0.56 0.0755397
0.57 0.0862404
0.58 0.0966211
0.59 0.106506
0.6 0.115652
0.61 0.12387
0.62 0.131064
0.63 0.137098
0.64 0.14179
0.65 0.144932
0.66 0.146605
0.67 0.146761
0.68 0.145367
0.69 0.142201
0.7 0.137533
0.71 0.131419
0.72 0.123934
0.73 0.115027
0.74 0.10495
0.75 0.0938767
0.76 0.081948
0.77 0.0692658
0.78 0.0560236
0.79 0.0424246
0.8 0.0286194
0.81 0.0147568
0.82 0.00100086
0.83 -0.0125245
0.84 -0.0257119
0.85 -0.0384649
0.86 -0.0506232
0.87 -0.0622014
0.88 -0.073161
0.89 -0.083479
0.9 -0.0930648
0.91 -0.10199
0.92 -0.110297
0.93 -0.118015
0.94 -0.125138
0.95 -0.131728
0.96 -0.13787
0.97 -0.143612
0.98 -0.148984
0.99 -0.154018
1 -0.158788
1.01 -0.163326
1.02 -0.167654
1.03 -0.171767
1.04 -0.175703
1.05 -0.179468
1.06 -0.18306
1.07 -0.186451
1.08 -0.18965
1.09 -0.192654
1.1 -0.195456
1.11 -0.198034
1.12 -0.200392
1.13 -0.202552
1.14 -0.204526
1.15 -0.20633
1.16 -0.207988
1.17 -0.209556
1.18 -0.211078
1.19 -0.212603
1.2 -0.214202
1.21 -0.215926
1.22 -0.217828
1.23 -0.21996
1.24 -0.222404
1.25 -0.22517
1.26 -0.228268
1.27 -0.231699
1.28 -0.235474
1.29 -0.23954
1.3 -0.243813
1.31 -0.248207
1.32 -0.252607
1.33 -0.256849
1.34 -0.260777
1.35 -0.264218
1.36 -0.266971
1.37 -0.268682
1.38 -0.269248
1.39 -0.268462
1.4 -0.266116
1.41 -0.261758
1.42 -0.255373
1.43 -0.24686
1.44 -0.236097
1.45 -0.222775
1.46 -0.206904
1.47 -0.188651
1.48 -0.16807
1.49 -0.145153
1.5 -0.119978
1.51 -0.0929954
1.52 -0.0644693
1.53 -0.0346943
1.54 -0.00396312
1.55 0.0271628
1.56 0.0582637
1.57 0.0888999
1.58 0.118434
1.59 0.146444
1.6 0.172509
1.61 0.196196
1.62 0.216797
1.63 0.233956
1.64 0.247544
1.65 0.257292
1.66 0.262757
1.67 0.263557
1.68 0.260061
1.69 0.25227
1.7 0.240191
1.71 0.223465
1.72 0.202921
1.73 0.178842
1.74 0.151562
1.75 0.12114
1.76 0.0883816
1.77 0.0538184
1.78 0.0179355
1.79 -0.0187995
1.8 -0.0557699
1.81 -0.0924431
1.82 -0.128352
1.83 -0.162964
1.84 -0.195729
1.85 -0.226435
1.86 -0.254782
1.87 -0.280477
1.88 -0.30295
1.89 -0.32247
1.9 -0.338975
1.91 -0.35246
1.92 -0.362576
1.93 -0.369778
1.94 -0.374282
1.95 -0.376271
1.96 -0.37575
1.97 -0.373075
1.98 -0.368631
1.99 -0.362664
2 -0.355355
2.01 -0.346931
2.02 -0.337721
2.03 -0.327907
2.04 -0.317635
2.05 -0.307002
2.06 -0.296141
2.07 -0.285096
2.08 -0.273874
2.09 -0.262418
2.1 -0.250684
2.11 -0.238594
2.12 -0.226043
2.13 -0.212845
2.14 -0.198876
2.15 -0.184049
2.16 -0.168248
2.17 -0.151301
2.18 -0.133068
2.19 -0.113612
2.2 -0.0929143
2.21 -0.0709713
2.22 -0.047713
2.23 -0.0234176
2.24 0.0017681
2.25 0.027659
2.26 0.0540656
2.27 0.0806332
2.28 0.107061
2.29 0.133035
2.3 0.158111
2.31 0.18192
2.32 0.204172
2.33 0.224535
2.34 0.242538
2.35 0.257737
2.36 0.270103
2.37 0.279419
2.38 0.285437
2.39 0.287622
2.4 0.286365
2.41 0.281662
2.42 0.273558
2.43 0.261709
2.44 0.24671
2.45 0.228839
2.46 0.208362
2.47 0.185384
2.48 0.160412
2.49 0.133949
2.5 0.106388
2.51 0.0781137
2.52 0.0495986
2.53 0.0212979
2.54 -0.00640738
2.55 -0.0331282
2.56 -0.0583372
2.57 -0.081895
2.58 -0.10356
2.59 -0.123137
2.6 -0.140139
2.61 -0.154751
2.62 -0.166977
2.63 -0.176835
2.64 -0.184161
2.65 -0.189202
2.66 -0.192249
2.67 -0.193499
2.68 -0.193097
2.69 -0.191301
2.7 -0.18853
2.71 -0.185062
2.72 -0.181176
2.73 -0.177178
2.74 -0.173375
2.75 -0.170007
2.76 -0.16729
2.77 -0.165558
2.78 -0.164867
2.79 -0.165311
2.8 -0.166959
2.81 -0.169968
2.82 -0.174256
2.83 -0.179693
2.84 -0.18618
2.85 -0.193636
2.86 -0.201884
2.87 -0.210644
2.88 -0.219701
2.89 -0.228819
2.9 -0.237698
2.91 -0.246092
2.92 -0.25376
2.93 -0.26047
2.94 -0.2658
2.95 -0.269687
2.96 -0.271978
2.97 -0.27253
2.98 -0.271026
2.99 -0.267481
3 -0.261963
3.01 -0.254473
3.02 -0.244927
3.03 -0.233368
3.04 -0.220092
3.05 -0.205244
3.06 -0.188964
3.07 -0.171355
3.08 -0.152818
3.09 -0.133585
3.1 -0.113897
3.11 -0.0940027
3.12 -0.0742056
3.13 -0.0547423
3.14 -0.0358356
3.15 -0.0177965
3.16 -0.000795597
3.17 0.0150535
3.18 0.0296231
3.19 0.0427147
3.2 0.0542207
3.21 0.0642438
3.22 0.0727909
3.23 0.0798608
3.24 0.0853991
3.25 0.0896988
3.26 0.092891
3.27 0.0951289
3.28 0.0964952
3.29 0.097312
3.3 0.0977875
3.31 0.098127
3.32 0.0985674
3.33 0.09934
3.34 0.10063
3.35 0.102617
3.36 0.105531
3.37 0.109559
3.38 0.114728
3.39 0.121125
3.4 0.128845
3.41 0.138046
3.42 0.148548
3.43 0.160312
3.44 0.17327
3.45 0.187474
3.46 0.202628
3.47 0.218575
3.48 0.235146
3.49 0.252186
3.5 0.26944
3.51 0.286682
3.52 0.303707
3.53 0.320264
3.54 0.336101
3.55 0.351071
3.56 0.364998
3.57 0.377676
3.58 0.388812
3.59 0.398449
3.6 0.406494
3.61 0.412877
3.62 0.417286
3.63 0.419949
3.64 0.420886
3.65 0.420129
3.66 0.417548
3.67 0.413335
3.68 0.407656
3.69 0.400614
3.7 0.392238
3.71 0.382659
3.72 0.372108
3.73 0.360712
3.74 0.348575
3.75 0.335784
3.76 0.322538
3.77 0.308942
3.78 0.295088
3.79 0.281045
3.8 0.266916
3.81 0.252758
3.82 0.238615
3.83 0.224529
3.84 0.210522
3.85 0.196604
3.86 0.182778
3.87 0.169052
3.88 0.155422
3.89 0.141874
3.9 0.128403
3.91 0.115011
3.92 0.101708
3.93 0.0884947
3.94 0.0753887
3.95 0.0624156
3.96 0.0496421
3.97 0.0370934
3.98 0.0248234
3.99 0.0128948
4 0.00143429
4.01 -0.00949821
4.02 -0.0198396
4.03 -0.0295055
4.04 -0.0383466
4.05 -0.0462569
4.06 -0.0532234
4.07 -0.0591743
4.08 -0.0640041
4.09 -0.0675533
4.1 -0.0699195
4.11 -0.0710785
4.12 -0.0710209
4.13 -0.0695658
4.14 -0.0669284
4.15 -0.0631557
4.16 -0.0583065
4.17 -0.0523472
4.18 -0.0454578
4.19 -0.0377843
4.2 -0.0294409
4.21 -0.0205186
4.22 -0.0111716
4.23 -0.00157656
4.24 0.00813187
4.25 0.0178143
4.26 0.0273066
4.27 0.0364941
4.28 0.0452646
4.29 0.0535162
4.3 0.0610504
4.31 0.0678812
4.32 0.0739526
4.33 0.0792228
4.34 0.0835656
4.35 0.0870364
4.36 0.0896789
4.37 0.0915163
4.38 0.0925281
4.39 0.0927742
4.4 0.0923779
4.41 0.0914095
4.42 0.0899298
4.43 0.0880024
4.44 0.0857696
4.45 0.0833171
4.46 0.0807291
4.47 0.078091
4.48 0.0754963
4.49 0.0730144
4.5 0.070708
4.51 0.0686652
4.52 0.0669188
4.53 0.0654935
4.54 0.0644145
4.55 0.0637277
4.56 0.0634394
4.57 0.063517
4.58 0.0639488
4.59 0.0647291
4.6 0.0658521
4.61 0.0672468
4.62 0.0688775
4.63 0.0707056
4.64 0.0727069
4.65 0.0748084
4.66 0.0769658
4.67 0.0791348
4.68 0.0812618
4.69 0.0833
4.7 0.0852094
4.71 0.08695
4.72 0.0884629
4.73 0.0897054
4.74 0.0906597
4.75 0.0912929
4.76 0.0915571
4.77 0.0913888
4.78 0.0908018
4.79 0.0897693
4.8 0.0882638
4.81 0.0861809
4.82 0.0835725
4.83 0.0804173
4.84 0.0766955
4.85 0.0723147
4.86 0.0673083
4.87 0.0616854
4.88 0.055437
4.89 0.0485041
4.9 0.0408905
4.91 0.0326487
4.92 0.0237877
4.93 0.014296
4.94 0.00415652
4.95 -0.00653352
4.96 -0.0177406
4.97 -0.0294273
4.98 -0.0416053
4.99 -0.0541497
5 -0.0670025
5.01 -0.0801017
5.02 -0.0933942
5.03 -0.106783
5.04 -0.120189
5.05 -0.133537
5.06 -0.146735
5.07 -0.159693
5.08 -0.17235
5.09 -0.184636
5.1 -0.196458
5.11 -0.207708
5.12 -0.218382
5.13 -0.228429
5.14 -0.237798
5.15 -0.246342
5.16 -0.254135
5.17 -0.261157
5.18 -0.267392
5.19 -0.272731
5.2 -0.277247
5.21 -0.280974
5.22 -0.283925
5.23 -0.286052
5.24 -0.287393
5.25 -0.288032
5.26 -0.287996
5.27 -0.287291
5.28 -0.285916
5.29 -0.283976
5.3 -0.281508
5.31 -0.27854
5.32 -0.275044
5.33 -0.271125
5.34 -0.266812
5.35 -0.262133
5.36 -0.257069
5.37 -0.251681
5.38 -0.245999
5.39 -0.240039
5.4 -0.233797
5.41 -0.227292
5.42 -0.220556
5.43 -0.2136
5.44 -0.206425
5.45 -0.199032
5.46 -0.191453
5.47 -0.183699
5.48 -0.175781
5.49 -0.167691
5.5 -0.159467
5.51 -0.151124
5.52 -0.142675
5.53 -0.134129
5.54 -0.125515
5.55 -0.116853
5.56 -0.108163
5.57 -0.0994642
5.58 -0.0907815
5.59 -0.0821348
5.6 -0.0735437
5.61 -0.0650323
5.62 -0.0566282
5.63 -0.0483405
5.64 -0.0401863
5.65 -0.0321837
5.66 -0.0243731
5.67 -0.0167457
5.68 -0.00931503
5.69 -0.00209379
5.7 0.00487516
5.71 0.0116012
5.72 0.0180792
5.73 0.024298
5.74 0.0302202
5.75 0.0358381
5.76 0.0411585
5.77 0.046169
5.78 0.0508393
5.79 0.0551351
5.8 0.059078
5.81 0.0626548
5.82 0.0658473
5.83 0.0685876
5.84 0.0709206
5.85 0.0728357
5.86 0.0743241
5.87 0.0753206
5.88 0.0758664
5.89 0.0759729
5.9 0.0756426
5.91 0.0748427
5.92 0.0735976
5.93 0.0719518
5.94 0.0699252
5.95 0.067525
5.96 0.0647686
5.97 0.0617277
5.98 0.0584401
5.99 0.0549451
6 0.0512735
6.01 0.047501
6.02 0.0436766
6.03 0.0398499
6.04 0.0360839
6.05 0.0324292
6.06 0.0289315
6.07 0.025635
6.08 0.0226076
6.09 0.0198854
6.1 0.0174827
6.11 0.0154251
6.12 0.0137532
6.13 0.0125008
6.14 0.0116343
6.15 0.0111523
6.16 0.0110529
6.17 0.0113662
6.18 0.0120165
6.19 0.0129774
6.2 0.014218
6.21 0.015731
6.22 0.0174452
6.23 0.0193133
6.24 0.021293
6.25 0.0233435
6.26 0.025412
6.27 0.0274537
6.28 0.0294297
6.29 0.0312961
6.3 0.0330081
6.31 0.0345495
6.32 0.035897
6.33 0.0370278
6.34 0.0378974
6.35 0.0385292
6.36 0.0389196
6.37 0.0390694
6.38 0.0389521
6.39 0.0386051
6.4 0.0380461
6.41 0.0372899
6.42 0.0363375
6.43 0.035217
6.44 0.0339587
6.45 0.0325817
6.46 0.0311006
6.47 0.0295335
6.48 0.027907
6.49 0.0262369
6.5 0.0245369
6.51 0.0228195
6.52 0.0210988
6.53 0.019384
6.54 0.0176828
6.55 0.0160058
6.56 0.0143574
6.57 0.0127426
6.58 0.0111671
6.59 0.00964185
6.6 0.00817321
6.61 0.00676632
6.62 0.00543049
6.63 0.00418224
6.64 0.00304062
6.65 0.00201197
6.66 0.00111279
6.67 0.000364568
6.68 -0.000189662
6.69 -0.000550245
6.7 -0.000695489
6.71 -0.000603384
6.72 -0.000212547
6.73 0.00046965
6.74 0.00145784
6.75 0.00277007
6.76 0.00445791
6.77 0.00652215
6.78 0.00895155
6.79 0.0117517
6.8 0.0149469
6.81 0.018548
6.82 0.0225103
6.83 0.0268223
6.84 0.031475
6.85 0.0364817
6.86 0.0417726
6.87 0.0473204
6.88 0.0530949
6.89 0.0590866
6.9 0.0652321
6.91 0.0714923
6.92 0.0778307
6.93 0.0842109
6.94 0.0905884
6.95 0.0969262
6.96 0.10319
6.97 0.10934
6.98 0.115334
6.99 0.121156
7 0.126781
7.01 0.132179
7.02 0.137299
7.03 0.142155
7.04 0.146728
7.05 0.151006
7.06 0.154928
7.07 0.15852
7.08 0.161778
7.09 0.164691
7.1 0.167211
7.11 0.169345
7.12 0.171104
7.13 0.172478
7.14 0.173432
7.15 0.173943
7.16 0.174038
7.17 0.173709
7.18 0.172937
7.19 0.171664
7.2 0.169943
7.21 0.167768
7.22 0.165137
7.23 0.161982
7.24 0.158367
7.25 0.154302
7.26 0.149796
7.27 0.144818
7.28 0.139409
7.29 0.133612
7.3 0.127452
7.31 0.120935
7.32 0.114091
7.33 0.106988
7.34 0.0996619
7.35 0.0921516
7.36 0.0844925
7.37 0.0767526
7.38 0.0689781
7.39 0.0612158
7.4 0.0535279
7.41 0.045959
7.42 0.038553
7.43 0.0313537
7.44 0.0244336
7.45 0.0178251
7.46 0.0115509
7.47 0.00564422
7.48 0.000164265
7.49 -0.00484592
7.5 -0.00940049
7.51 -0.013479
7.52 -0.01705
7.53 -0.0200433
7.54 -0.0225137
7.55 -0.0244525
7.56 -0.0258532
7.57 -0.0266308
7.58 -0.026857
7.59 -0.0265386
7.6 -0.0256776
7.61 -0.0242199
7.62 -0.0222035
7.63 -0.0196641
7.64 -0.0166121
7.65 -0.0130265
7.66 -0.00891465
7.67 -0.00434013
7.68 0.000675972
7.69 0.00612092
7.7 0.0120017
7.71 0.0182325
7.72 0.024778
7.73 0.0315991
7.74 0.038681
7.75 0.0459383
7.76 0.0533179
7.77 0.0607661
7.78 0.0682209
7.79 0.0756122
7.8 0.0828786
7.81 0.0899579
7.82 0.096765
7.83 0.103219
7.84 0.109283
7.85 0.114897
7.86 0.119987
7.87 0.124437
7.88 0.128267
7.89 0.131434
7.9 0.1339
7.91 0.13552
7.92 0.136371
7.93 0.136443
7.94 0.135726
7.95 0.13413
7.96 0.131708
7.97 0.128513
7.98 0.12456
7.99 0.119822
8 0.114323
8.01 0.10816
8.02 0.101371
8.03 0.0939774
8.04 0.0859788
8.05 0.0774931
8.06 0.0685655
8.07 0.0592418
8.08 0.0495205
8.09 0.0395027
8.1 0.0292342
8.11 0.0187567
8.12 0.00809605
8.13 -0.00269227
8.14 -0.0135646
8.15 -0.0244865
8.16 -0.035424
8.17 -0.0463398
8.18 -0.0572034
8.19 -0.0679864
8.2 -0.0786565
8.21 -0.0891697
8.22 -0.0995141
8.23 -0.109664
8.24 -0.119593
8.25 -0.129235
8.26 -0.138598
8.27 -0.147658
8.28 -0.156392
8.29 -0.164733
8.3 -0.17268
8.31 -0.180229
8.32 -0.187361
8.33 -0.194026
8.34 -0.200202
8.35 -0.205917
8.36 -0.211164
8.37 -0.215921
8.38 -0.220146
8.39 -0.223903
8.4 -0.2272
8.41 -0.230047
8.42 -0.232393
8.43 -0.234326
8.44 -0.235868
8.45 -0.237041
8.46 -0.237834
8.47 -0.238301
8.48 -0.238483
8.49 -0.238405
8.5 -0.238076
8.51 -0.237522
8.52 -0.236783
8.53 -0.235875
8.54 -0.234809
8.55 -0.233584
8.56 -0.232225
8.57 -0.230736
8.58 -0.229116
8.59 -0.227339
8.6 -0.225416
8.61 -0.223339
8.62 -0.221096
8.63 -0.218648
8.64 -0.215994
8.65 -0.213126
8.66 -0.21003
8.67 -0.206676
8.68 -0.203049
8.69 -0.199164
8.7 -0.195016
8.71 -0.190597
8.72 -0.185889
8.73 -0.180934
8.74 -0.175745
8.75 -0.170341
8.76 -0.164714
8.77 -0.158922
8.78 -0.152995
8.79 -0.146961
8.8 -0.140846
8.81 -0.134693
8.82 -0.128536
8.83 -0.122404
8.84 -0.116331
8.85 -0.110348
8.86 -0.10447
8.87 -0.0987143
8.88 -0.0930987
8.89 -0.0876427
8.9 -0.0823312
8.91 -0.0771604
8.92 -0.0721222
8.93 -0.0672205
8.94 -0.0624168
8.95 -0.0576902
8.96 -0.053017
8.97 -0.0483723
8.98 -0.0437231
8.99 -0.0390421
9 -0.0343038
9.01 -0.0294758
9.02 -0.0245334
9.03 -0.019466
9.04 -0.0142606
9.05 -0.00890202
9.06 -0.00337439
9.07 0.00230226
9.08 0.00812069
9.09 0.0140691
9.1 0.0201453
9.11 0.0263072
9.12 0.0325292
9.13 0.0387828
9.14 0.0450333
9.15 0.0512429
9.16 0.0573786
9.17 0.0634076
9.18 0.0692835
9.19 0.0749712
9.2 0.0804546
9.21 0.0857096
9.22 0.0907039
9.23 0.0953983
9.24 0.0998107
9.25 0.103933
9.26 0.107761
9.27 0.11125
9.28 0.114449
9.29 0.117367
9.3 0.120013
9.31 0.122368
9.32 0.124469
9.33 0.12634
9.34 0.127996
9.35 0.129432
9.36 0.130666
9.37 0.131722
9.38 0.13261
9.39 0.133329
9.4 0.133871
9.41 0.134258
9.42 0.134487
9.43 0.134555
9.44 0.134432
9.45 0.134137
9.46 0.133663
9.47 0.133002
9.48 0.132122
9.49 0.131034
9.5 0.129738
9.51 0.128233
9.52 0.126499
9.53 0.124541
9.54 0.122378
9.55 0.120019
9.56 0.117466
9.57 0.114725
9.58 0.111831
9.59 0.108805
9.6 0.105667
9.61 0.10243
9.62 0.0991345
9.63 0.0958045
9.64 0.0924647
9.65 0.0891434
9.66 0.0858651
9.67 0.0826501
9.68 0.0795168
9.69 0.0764917
9.7 0.0735893
9.71 0.0708124
9.72 0.0681688
9.73 0.06567
9.74 0.0633276
9.75 0.0611255
9.76 0.0590615
9.77 0.0571327
9.78 0.0553524
9.79 0.0536951
9.8 0.0521554
9.81 0.050729
9.82 0.0494258
9.83 0.0482333
9.84 0.0471481
9.85 0.0461724
9.86 0.0453213
9.87 0.0446013
9.88 0.0440138
9.89 0.0435702
9.9 0.0432923
9.91 0.0432082
9.92 0.0433159
9.93 0.0436313
9.94 0.0441725
9.95 0.0449899
9.96 0.046062
9.97 0.0473993
9.98 0.0490092
9.99 0.0509321
10 0.0531401
10.01 0.0556196
10.02 0.0583611
10.03 0.0613712
10.04 0.0646216
10.05 0.0680706
10.06 0.0716891
10.07 0.0754497
10.08 0.0793146
10.09 0.08323
10.1 0.0871539
10.11 0.091042
10.12 0.094832
10.13 0.0984869
10.14 0.101964
10.15 0.105221
10.16 0.108182
10.17 0.110831
10.18 0.113145
10.19 0.115096
10.2 0.116623
10.21 0.117715
10.22 0.118386
10.23 0.118627
10.24 0.118412
10.25 0.11772
10.26 0.116603
10.27 0.115071
10.28 0.113133
10.29 0.110755
10.3 0.108015
10.31 0.104933
10.32 0.101532
10.33 0.0977979
10.34 0.0937883
10.35 0.0895345
10.36 0.0850593
10.37 0.0803687
10.38 0.0754933
10.39 0.0704666
10.4 0.0653081
10.41 0.0600311
10.42 0.0546515
10.43 0.0491973
10.44 0.0436844
10.45 0.0381277
10.46 0.0325405
10.47 0.026943
10.48 0.0213493
10.49 0.0157733
10.5 0.0102351
10.51 0.00474698
10.52 -0.000678353
10.53 -0.00602747
10.54 -0.0112775
10.55 -0.0164161
10.56 -0.0214375
10.57 -0.0263306
10.58 -0.031077
10.59 -0.0356591
10.6 -0.0400846
10.61 -0.0443479
10.62 -0.0484424
10.63 -0.0523439
10.64 -0.0560768
10.65 -0.0596426
10.66 -0.0630449
10.67 -0.0662676
10.68 -0.0693357
10.69 -0.0722606
10.7 -0.0750505
10.71 -0.0777027
10.72 -0.0802315
10.73 -0.0826533
10.74 -0.0849757
10.75 -0.0872004
10.76 -0.0893294
10.77 -0.0913753
10.78 -0.0933397
10.79 -0.0952207
10.8 -0.0970045
10.81 -0.0986979
10.82 -0.100294
10.83 -0.101784
10.84 -0.103141
10.85 -0.104365
10.86 -0.105446
10.87 -0.106372
10.88 -0.107112
10.89 -0.107658
10.9 -0.108012
10.91 -0.108162
10.92 -0.10809
10.93 -0.10778
10.94 -0.107253
10.95 -0.106509
10.96 -0.105549
10.97 -0.104355
10.98 -0.10297
10.99 -0.101407
11 -0.0996807
11.01 -0.0977938
11.02 -0.0957864
11.03 -0.0936839
11.04 -0.0915094
11.05 -0.0892842
11.06 -0.087038
11.07 -0.084796
11.08 -0.0825799
11.09 -0.0804136
11.1 -0.0783206
11.11 -0.0763108
11.12 -0.0743964
11.13 -0.0725892
11.14 -0.0709099
11.15 -0.0693464
11.16 -0.0678989
11.17 -0.0665652
11.18 -0.0653551
11.19 -0.0642475
11.2 -0.0632317
11.21 -0.0622982
11.22 -0.0614426
11.23 -0.0606496
11.24 -0.0599045
11.25 -0.0591976
11.26 -0.0585217
11.27 -0.0578687
11.28 -0.0572305
11.29 -0.0566033
11.3 -0.0559851
11.31 -0.0553768
11.32 -0.0547791
11.33 -0.0541953
11.34 -0.0536299
11.35 -0.053093
11.36 -0.0525889
11.37 -0.0521239
11.38 -0.0517049
11.39 -0.0513442
11.4 -0.0510462
11.41 -0.0508122
11.42 -0.0506453
11.43 -0.0505514
11.44 -0.0505327
11.45 -0.0505801
11.46 -0.0506897
11.47 -0.0508569
11.48 -0.0510787
11.49 -0.0513386
11.5 -0.0516267
11.51 -0.0519322
11.52 -0.052243
11.53 -0.0525456
11.54 -0.0528286
11.55 -0.0530816
11.56 -0.0532897
11.57 -0.0534451
11.58 -0.0535433
11.59 -0.053579
11.6 -0.0535442
11.61 -0.0534346
11.62 -0.0532569
11.63 -0.0530126
11.64 -0.0527033
11.65 -0.0523274
11.66 -0.0518986
11.67 -0.0514229
11.68 -0.0509063
11.69 -0.0503507
11.7 -0.0497668
11.71 -0.0491602
11.72 -0.0485347
11.73 -0.0478917
11.74 -0.0472337
11.75 -0.0465613
11.76 -0.0458731
11.77 -0.0451647
11.78 -0.0444306
11.79 -0.0436672
11.8 -0.0428684
11.81 -0.0420264
11.82 -0.0411281
11.83 -0.0401726
11.84 -0.0391541
11.85 -0.0380672
11.86 -0.0368968
11.87 -0.0356499
11.88 -0.0343267
11.89 -0.0329284
11.9 -0.0314507
11.91 -0.0299033
11.92 -0.0282971
11.93 -0.0266408
11.94 -0.0249423
11.95 -0.0232146
11.96 -0.021473
11.97 -0.0197301
11.98 -0.0179988
11.99 -0.0162953
12 -0.0146284
12.01 -0.0130075
12.02 -0.0114402
12.03 -0.00994178
12.04 -0.00850756
12.05 -0.00713741
12.06 -0.00582949
12.07 -0.00458526
