[DEFAULT]

version = diffpy.pdfgetx-2.2.1

# input and output specifications
dataformat = twotheta
inputfile = Synthetic_CSH_CSH_pdf_ramp_500_02_normalized.chi
backgroundfiles = quartz_030degC_normalized.chi
outputtype = gr

# PDF calculation setup
mode = xray
wavelength = 0.2113
twothetazero = 0
composition = CaO SiO2
bgscales = 1.0
rpoly = 0.9
qmaxinst = 23.7031
qmin = 0.5
qmax = 20
rmin = 0
rmax = 60
rstep = 0.01

# End of config --------------------------------------------------------------

#### start data
#S 1
#L r(Å)  G(Å$^{-2}$)
0 0
0.01 -0.00223853
0.02 -0.00439924
0.03 -0.00641599
0.04 -0.00822656
0.05 -0.00973649
0.06 -0.0109118
0.07 -0.0117256
0.08 -0.0121506
0.09 -0.0121369
0.1 -0.0116816
0.11 -0.010828
0.12 -0.00959894
0.13 -0.0080163
0.14 -0.00611157
0.15 -0.00398167
0.16 -0.00169176
0.17 0.000686731
0.18 0.00306733
0.19 0.00536044
0.2 0.0074877
0.21 0.00937328
0.22 0.0108997
0.23 0.0120209
0.24 0.0126973
0.25 0.0128883
0.26 0.0125225
0.27 0.011589
0.28 0.0101351
0.29 0.00818353
0.3 0.00575605
0.31 0.00288959
0.32 -0.000288714
0.33 -0.00369101
0.34 -0.00721768
0.35 -0.0107427
0.36 -0.0141319
0.37 -0.0172623
0.38 -0.0200099
0.39 -0.0221748
0.4 -0.0236671
0.41 -0.0243999
0.42 -0.0242789
0.43 -0.0231403
0.44 -0.0209196
0.45 -0.0176523
0.46 -0.013323
0.47 -0.00789315
0.48 -0.00132874
0.49 0.00618747
0.5 0.0145724
0.51 0.0237247
0.52 0.0335946
0.53 0.0439213
0.54 0.0545448
0.55 0.0652944
0.56 0.0759623
0.57 0.0863436
0.58 0.0962607
0.59 0.105538
0.6 0.113926
0.61 0.121251
0.62 0.127443
0.63 0.132387
0.64 0.135924
0.65 0.13788
0.66 0.138372
0.67 0.137387
0.68 0.134926
0.69 0.130823
0.7 0.125366
0.71 0.118638
0.72 0.11074
0.73 0.10167
0.74 0.0916725
0.75 0.0809186
0.76 0.069547
0.77 0.057668
0.78 0.0454496
0.79 0.0330519
0.8 0.0205922
0.81 0.00818317
0.82 -0.00405937
0.83 -0.0160703
0.84 -0.027792
0.85 -0.0391789
0.86 -0.0501481
0.87 -0.0607408
0.88 -0.0709574
0.89 -0.0808071
0.9 -0.0902638
0.91 -0.0993853
0.92 -0.108205
0.93 -0.116744
0.94 -0.124998
0.95 -0.132982
0.96 -0.140716
0.97 -0.148194
0.98 -0.155381
0.99 -0.162226
1 -0.168719
1.01 -0.174813
1.02 -0.180448
1.03 -0.185485
1.04 -0.189934
1.05 -0.193738
1.06 -0.196842
1.07 -0.199103
1.08 -0.200558
1.09 -0.201216
1.1 -0.20108
1.11 -0.200108
1.12 -0.19837
1.13 -0.195991
1.14 -0.193065
1.15 -0.189689
1.16 -0.186004
1.17 -0.182205
1.18 -0.178457
1.19 -0.174931
1.2 -0.171884
1.21 -0.169443
1.22 -0.167763
1.23 -0.166988
1.24 -0.167384
1.25 -0.168947
1.26 -0.171699
1.27 -0.175654
1.28 -0.180889
1.29 -0.18729
1.3 -0.194653
1.31 -0.202812
1.32 -0.211577
1.33 -0.220672
1.34 -0.22975
1.35 -0.238496
1.36 -0.246563
1.37 -0.25341
1.38 -0.258798
1.39 -0.262385
1.4 -0.263845
1.41 -0.262522
1.42 -0.258377
1.43 -0.251274
1.44 -0.24106
1.45 -0.227342
1.46 -0.210183
1.47 -0.189863
1.48 -0.166518
1.49 -0.140216
1.5 -0.111161
1.51 -0.0800094
1.52 -0.0471815
1.53 -0.0131395
1.54 0.0216029
1.55 0.0563313
1.56 0.0904705
1.57 0.123438
1.58 0.154344
1.59 0.182744
1.6 0.208166
1.61 0.230135
1.62 0.247826
1.63 0.260942
1.64 0.269482
1.65 0.273265
1.66 0.271924
1.67 0.265218
1.68 0.253762
1.69 0.23774
1.7 0.217356
1.71 0.192503
1.72 0.164213
1.73 0.132962
1.74 0.0992684
1.75 0.0635014
1.76 0.0265227
1.77 -0.0110499
1.78 -0.0486513
1.79 -0.0856356
1.8 -0.12142
1.81 -0.155588
1.82 -0.187739
1.83 -0.217379
1.84 -0.244063
1.85 -0.267856
1.86 -0.28864
1.87 -0.306311
1.88 -0.320512
1.89 -0.331778
1.9 -0.340257
1.91 -0.346142
1.92 -0.349376
1.93 -0.350529
1.94 -0.349936
1.95 -0.347884
1.96 -0.344567
1.97 -0.340341
1.98 -0.335514
1.99 -0.330292
2 -0.324839
2.01 -0.319292
2.02 -0.313739
2.03 -0.308197
2.04 -0.302639
2.05 -0.296965
2.06 -0.291055
2.07 -0.284752
2.08 -0.277874
2.09 -0.270077
2.1 -0.261209
2.11 -0.251069
2.12 -0.239449
2.13 -0.225974
2.14 -0.210519
2.15 -0.193068
2.16 -0.17354
2.17 -0.151779
2.18 -0.12773
2.19 -0.101694
2.2 -0.0738143
2.21 -0.04426
2.22 -0.0131593
2.23 0.0189555
2.24 0.0517352
2.25 0.0847974
2.26 0.117656
2.27 0.149838
2.28 0.180914
2.29 0.210451
2.3 0.23779
2.31 0.26255
2.32 0.284496
2.33 0.303313
2.34 0.318512
2.35 0.329709
2.36 0.337109
2.37 0.340634
2.38 0.340187
2.39 0.33538
2.4 0.326881
2.41 0.314873
2.42 0.299591
2.43 0.280938
2.44 0.259661
2.45 0.236179
2.46 0.210882
2.47 0.184075
2.48 0.156309
2.49 0.128072
2.5 0.099765
2.51 0.0718158
2.52 0.0446724
2.53 0.0186154
2.54 -0.00607125
2.55 -0.0291
2.56 -0.050032
2.57 -0.0689518
2.58 -0.0857577
2.59 -0.100391
2.6 -0.112523
2.61 -0.122466
2.62 -0.130327
2.63 -0.136207
2.64 -0.140059
2.65 -0.142155
2.66 -0.142773
2.67 -0.142102
2.68 -0.140281
2.69 -0.13752
2.7 -0.134117
2.71 -0.130266
2.72 -0.126146
2.73 -0.121948
2.74 -0.117853
2.75 -0.113999
2.76 -0.110504
2.77 -0.10755
2.78 -0.105165
2.79 -0.103399
2.8 -0.102292
2.81 -0.101939
2.82 -0.102309
2.83 -0.103347
2.84 -0.105026
2.85 -0.107339
2.86 -0.110236
2.87 -0.113596
2.88 -0.117342
2.89 -0.121399
2.9 -0.125687
2.91 -0.130075
2.92 -0.134466
2.93 -0.138762
2.94 -0.142824
2.95 -0.146566
2.96 -0.149897
2.97 -0.152725
2.98 -0.154894
2.99 -0.15634
3 -0.157027
3.01 -0.156893
3.02 -0.155824
3.03 -0.15375
3.04 -0.150729
3.05 -0.14675
3.06 -0.141788
3.07 -0.135767
3.08 -0.128846
3.09 -0.121075
3.1 -0.112517
3.11 -0.103151
3.12 -0.0931755
3.13 -0.0826975
3.14 -0.071824
3.15 -0.0606501
3.16 -0.0493282
3.17 -0.0379892
3.18 -0.0267481
3.19 -0.015737
3.2 -0.00508477
3.21 0.00514037
3.22 0.0148615
3.23 0.0239984
3.24 0.0324372
3.25 0.0402314
3.26 0.047377
3.27 0.053888
3.28 0.0597146
3.29 0.0650012
3.3 0.0698256
3.31 0.0742732
3.32 0.0784225
3.33 0.0824156
3.34 0.086379
3.35 0.0904274
3.36 0.0946965
3.37 0.0993205
3.38 0.104376
3.39 0.109946
3.4 0.11612
3.41 0.123017
3.42 0.130583
3.43 0.138821
3.44 0.147712
3.45 0.157295
3.46 0.167408
3.47 0.177952
3.48 0.188818
3.49 0.199883
3.5 0.21097
3.51 0.221917
3.52 0.232564
3.53 0.242706
3.54 0.252143
3.55 0.260769
3.56 0.268445
3.57 0.275009
3.58 0.280223
3.59 0.284149
3.6 0.286731
3.61 0.287934
3.62 0.287542
3.63 0.285779
3.64 0.282704
3.65 0.27839
3.66 0.272811
3.67 0.266175
3.68 0.258665
3.69 0.250422
3.7 0.241565
3.71 0.232268
3.72 0.222732
3.73 0.213101
3.74 0.20352
3.75 0.194149
3.76 0.185085
3.77 0.176415
3.78 0.16821
3.79 0.160604
3.8 0.153547
3.81 0.14704
3.82 0.141066
3.83 0.135644
3.84 0.130678
3.85 0.126081
3.86 0.121778
3.87 0.117696
3.88 0.113737
3.89 0.1098
3.9 0.105807
3.91 0.101682
3.92 0.0973383
3.93 0.0927512
3.94 0.0878928
3.95 0.0827516
3.96 0.0772933
3.97 0.07159
3.98 0.0656883
3.99 0.0596495
4 0.0535522
4.01 0.047505
4.02 0.0416103
4.03 0.0359745
4.04 0.0307447
4.05 0.0260563
4.06 0.021982
4.07 0.0186204
4.08 0.0160932
4.09 0.0145644
4.1 0.0139892
4.11 0.0144077
4.12 0.0158415
4.13 0.0184512
4.14 0.0220562
4.15 0.0266114
4.16 0.0320566
4.17 0.0383992
4.18 0.0454677
4.19 0.0531186
4.2 0.0612322
4.21 0.0696965
4.22 0.0783531
4.23 0.0870426
4.24 0.095633
4.25 0.103983
4.26 0.111921
4.27 0.119372
4.28 0.126239
4.29 0.132436
4.3 0.13777
4.31 0.142298
4.32 0.145987
4.33 0.148819
4.34 0.150686
4.35 0.151671
4.36 0.151833
4.37 0.15121
4.38 0.149794
4.39 0.14765
4.4 0.144897
4.41 0.141599
4.42 0.137806
4.43 0.133562
4.44 0.128986
4.45 0.124138
4.46 0.119075
4.47 0.113827
4.48 0.108471
4.49 0.103044
4.5 0.0975762
4.51 0.0920936
4.52 0.0866187
4.53 0.0811644
4.54 0.075739
4.55 0.07035
4.56 0.0649988
4.57 0.0596818
4.58 0.0543967
4.59 0.0491419
4.6 0.0439167
4.61 0.0387157
4.62 0.0335383
4.63 0.0283847
4.64 0.023261
4.65 0.0181663
4.66 0.0131047
4.67 0.00808065
4.68 0.00310449
4.69 -0.00182232
4.7 -0.00669803
4.71 -0.0115206
4.72 -0.0162852
4.73 -0.0209948
4.74 -0.0256583
4.75 -0.0302831
4.76 -0.0348788
4.77 -0.0394594
4.78 -0.0440435
4.79 -0.0486488
4.8 -0.0532942
4.81 -0.0580121
4.82 -0.0628153
4.83 -0.0677229
4.84 -0.0727528
4.85 -0.0779392
4.86 -0.083284
4.87 -0.0887898
4.88 -0.0944601
4.89 -0.100307
4.9 -0.10632
4.91 -0.112474
4.92 -0.118749
4.93 -0.125124
4.94 -0.131569
4.95 -0.138039
4.96 -0.144495
4.97 -0.150893
4.98 -0.157169
4.99 -0.163286
5 -0.1692
5.01 -0.174864
5.02 -0.180193
5.03 -0.185167
5.04 -0.189761
5.05 -0.193942
5.06 -0.197644
5.07 -0.200845
5.08 -0.203565
5.09 -0.205794
5.1 -0.207506
5.11 -0.208671
5.12 -0.209355
5.13 -0.209571
5.14 -0.209333
5.15 -0.208604
5.16 -0.207475
5.17 -0.205972
5.18 -0.204124
5.19 -0.20192
5.2 -0.199422
5.21 -0.196665
5.22 -0.193674
5.23 -0.190457
5.24 -0.187039
5.25 -0.183454
5.26 -0.179717
5.27 -0.175836
5.28 -0.171816
5.29 -0.167681
5.3 -0.16344
5.31 -0.159099
5.32 -0.154654
5.33 -0.150127
5.34 -0.145526
5.35 -0.14086
5.36 -0.136135
5.37 -0.13137
5.38 -0.126581
5.39 -0.121786
5.4 -0.117004
5.41 -0.11226
5.42 -0.107574
5.43 -0.102969
5.44 -0.0984722
5.45 -0.094119
5.46 -0.0899184
5.47 -0.0858903
5.48 -0.0820543
5.49 -0.0784566
5.5 -0.0750785
5.51 -0.0719269
5.52 -0.0690049
5.53 -0.0663399
5.54 -0.0639014
5.55 -0.0616708
5.56 -0.0596319
5.57 -0.0577783
5.58 -0.0560774
5.59 -0.0544902
5.6 -0.052987
5.61 -0.0515374
5.62 -0.0501049
5.63 -0.0486531
5.64 -0.0471516
5.65 -0.045571
5.66 -0.043868
5.67 -0.0420348
5.68 -0.0400552
5.69 -0.037918
5.7 -0.0355955
5.71 -0.0331051
5.72 -0.0304585
5.73 -0.0276681
5.74 -0.0247421
5.75 -0.0217115
5.76 -0.0186128
5.77 -0.0154779
5.78 -0.0123434
5.79 -0.00925505
5.8 -0.00624997
5.81 -0.00336585
5.82 -0.000641781
5.83 0.00185623
5.84 0.00412217
5.85 0.0061292
5.86 0.00785499
5.87 0.00924102
5.88 0.0103068
5.89 0.0110569
5.9 0.0114934
5.91 0.0115977
5.92 0.011396
5.93 0.0109302
5.94 0.0102271
5.95 0.00930897
5.96 0.00820914
5.97 0.00698795
5.98 0.00568669
5.99 0.00434808
6 0.00302298
6.01 0.00175757
6.02 0.00059277
6.03 -0.000432621
6.04 -0.00125453
6.05 -0.00185564
6.06 -0.00221326
6.07 -0.00230434
6.08 -0.00208199
6.09 -0.00153925
6.1 -0.000687496
6.11 0.000476166
6.12 0.00196707
6.13 0.00379316
6.14 0.00591153
6.15 0.00830873
6.16 0.0109725
6.17 0.013913
6.18 0.0170728
6.19 0.0204311
6.2 0.0239666
6.21 0.0276767
6.22 0.0315206
6.23 0.0354757
6.24 0.0395239
6.25 0.043655
6.26 0.0478493
6.27 0.0520899
6.28 0.0563661
6.29 0.0606699
6.3 0.0649935
6.31 0.0693283
6.32 0.0736692
6.33 0.0780114
6.34 0.0823498
6.35 0.0866796
6.36 0.0909961
6.37 0.0952934
6.38 0.09956
6.39 0.103789
6.4 0.107972
6.41 0.112097
6.42 0.116143
6.43 0.120093
6.44 0.123936
6.45 0.127655
6.46 0.131221
6.47 0.134603
6.48 0.137797
6.49 0.140783
6.5 0.143537
6.51 0.146008
6.52 0.148214
6.53 0.15014
6.54 0.151774
6.55 0.153065
6.56 0.154043
6.57 0.154711
6.58 0.155072
6.59 0.155101
6.6 0.154821
6.61 0.154263
6.62 0.153443
6.63 0.152366
6.64 0.151049
6.65 0.149539
6.66 0.14786
6.67 0.146036
6.68 0.144081
6.69 0.142041
6.7 0.139938
6.71 0.137795
6.72 0.135632
6.73 0.133468
6.74 0.131319
6.75 0.129194
6.76 0.127104
6.77 0.125049
6.78 0.123027
6.79 0.121033
6.8 0.11906
6.81 0.117096
6.82 0.115126
6.83 0.113135
6.84 0.111108
6.85 0.10902
6.86 0.106862
6.87 0.104622
6.88 0.102287
6.89 0.0998327
6.9 0.0972665
6.91 0.0945887
6.92 0.0918018
6.93 0.0889027
6.94 0.0859094
6.95 0.0828434
6.96 0.079724
6.97 0.0765739
6.98 0.0734238
6.99 0.0703046
7 0.0672459
7.01 0.064281
7.02 0.0614583
7.03 0.0587925
7.04 0.0563097
7.05 0.0540326
7.06 0.0520146
7.07 0.0502422
7.08 0.0487191
7.09 0.0474471
7.1 0.0464464
7.11 0.0456917
7.12 0.0451509
7.13 0.0447996
7.14 0.0446163
7.15 0.0445632
7.16 0.0445862
7.17 0.0446428
7.18 0.0446874
7.19 0.0446609
7.2 0.0445218
7.21 0.0442273
7.22 0.0437375
7.23 0.042978
7.24 0.0419449
7.25 0.0406182
7.26 0.0389808
7.27 0.0369884
7.28 0.0346559
7.29 0.0320081
7.3 0.0290596
7.31 0.0258154
7.32 0.022303
7.33 0.0185837
7.34 0.0146976
7.35 0.0106863
7.36 0.00659573
7.37 0.00248843
7.38 -0.00158851
7.39 -0.00558948
7.4 -0.00944831
7.41 -0.0131377
7.42 -0.0166269
7.43 -0.0198888
7.44 -0.022875
7.45 -0.0255842
7.46 -0.0280255
7.47 -0.0302015
7.48 -0.0321053
7.49 -0.0337505
7.5 -0.0351834
7.51 -0.0364314
7.52 -0.0375219
7.53 -0.0384814
7.54 -0.039364
7.55 -0.0402041
7.56 -0.0410347
7.57 -0.0418933
7.58 -0.0428065
7.59 -0.043795
7.6 -0.0448742
7.61 -0.0460653
7.62 -0.0473655
7.63 -0.0487649
7.64 -0.0502527
7.65 -0.0518159
7.66 -0.0534292
7.67 -0.0550593
7.68 -0.056676
7.69 -0.0582447
7.7 -0.0597185
7.71 -0.0610719
7.72 -0.0622739
7.73 -0.0632969
7.74 -0.0640834
7.75 -0.0646416
7.76 -0.0649623
7.77 -0.0650403
7.78 -0.0648517
7.79 -0.0644223
7.8 -0.0637817
7.81 -0.0629535
7.82 -0.0619583
7.83 -0.0608356
7.84 -0.0596382
7.85 -0.0584075
7.86 -0.0571882
7.87 -0.0560354
7.88 -0.0549872
7.89 -0.0540812
7.9 -0.0533508
7.91 -0.0528584
7.92 -0.0525982
7.93 -0.0525811
7.94 -0.0528123
7.95 -0.0533159
7.96 -0.0540626
7.97 -0.0550208
7.98 -0.0561638
7.99 -0.0574669
8 -0.0588863
8.01 -0.0603666
8.02 -0.0618633
8.03 -0.0633286
8.04 -0.0647029
8.05 -0.0659496
8.06 -0.0670308
8.07 -0.0679133
8.08 -0.0685322
8.09 -0.0688995
8.1 -0.0690068
8.11 -0.068852
8.12 -0.0684136
8.13 -0.0677268
8.14 -0.0668273
8.15 -0.0657459
8.16 -0.0645113
8.17 -0.063172
8.18 -0.0617851
8.19 -0.0603971
8.2 -0.0590579
8.21 -0.0578283
8.22 -0.0567421
8.23 -0.0558357
8.24 -0.0551394
8.25 -0.0547154
8.26 -0.0545448
8.27 -0.0546312
8.28 -0.0549707
8.29 -0.0555765
8.3 -0.056406
8.31 -0.0574179
8.32 -0.0585749
8.33 -0.0598382
8.34 -0.061151
8.35 -0.0624549
8.36 -0.0636983
8.37 -0.0648244
8.38 -0.065762
8.39 -0.0664827
8.4 -0.066948
8.41 -0.0671261
8.42 -0.0669409
8.43 -0.0664234
8.44 -0.0655701
8.45 -0.0643849
8.46 -0.0628458
8.47 -0.0610019
8.48 -0.0588982
8.49 -0.056572
8.5 -0.0540562
8.51 -0.0514069
8.52 -0.0486884
8.53 -0.0459513
8.54 -0.0432488
8.55 -0.0406435
8.56 -0.0381726
8.57 -0.0358737
8.58 -0.0337783
8.59 -0.0319492
8.6 -0.0303682
8.61 -0.0290408
8.62 -0.0279656
8.63 -0.02716
8.64 -0.0265852
8.65 -0.0262062
8.66 -0.0259932
8.67 -0.0259196
8.68 -0.0259414
8.69 -0.0260101
8.7 -0.026088
8.71 -0.0261363
8.72 -0.0261117
8.73 -0.0259909
8.74 -0.0257516
8.75 -0.0253776
8.76 -0.0248356
8.77 -0.0241471
8.78 -0.0233182
8.79 -0.0223617
8.8 -0.021286
8.81 -0.0201284
8.82 -0.0189224
8.83 -0.0177003
8.84 -0.0165002
8.85 -0.0153631
8.86 -0.0143197
8.87 -0.0133999
8.88 -0.0126365
8.89 -0.0120676
8.9 -0.0116875
8.91 -0.0115031
8.92 -0.0115141
8.93 -0.0117406
8.94 -0.0121343
8.95 -0.0126717
8.96 -0.013323
8.97 -0.0140579
8.98 -0.0148243
8.99 -0.0155764
9 -0.0162705
9.01 -0.0168509
9.02 -0.0172676
9.03 -0.0174915
9.04 -0.0174893
9.05 -0.0172221
9.06 -0.0166454
9.07 -0.0157794
9.08 -0.0146215
9.09 -0.0131769
9.1 -0.0114203
9.11 -0.00942076
9.12 -0.00720973
9.13 -0.00482453
9.14 -0.0022973
9.15 0.00030678
9.16 0.00293389
9.17 0.00553452
9.18 0.00804991
9.19 0.010426
9.2 0.0126289
9.21 0.014624
9.22 0.0163721
9.23 0.0178314
9.24 0.019021
9.25 0.0199399
9.26 0.0205951
9.27 0.0209688
9.28 0.0211284
9.29 0.021107
9.3 0.0209437
9.31 0.0206758
9.32 0.0203661
9.33 0.0200664
9.34 0.0198246
9.35 0.0196996
9.36 0.0197407
9.37 0.0199754
9.38 0.0204333
9.39 0.0211487
9.4 0.0221554
9.41 0.0234277
9.42 0.0249598
9.43 0.0267388
9.44 0.0287714
9.45 0.0309884
9.46 0.0333518
9.47 0.0358189
9.48 0.0383443
9.49 0.0408669
9.5 0.0433362
9.51 0.0457048
9.52 0.0479124
9.53 0.049914
9.54 0.0516889
9.55 0.0532122
9.56 0.0544538
9.57 0.0553862
9.58 0.0560433
9.59 0.0564367
9.6 0.0565849
9.61 0.0564891
9.62 0.0562221
9.63 0.0558258
9.64 0.0553459
9.65 0.0548325
9.66 0.0543457
9.67 0.0539346
9.68 0.053645
9.69 0.053536
9.7 0.0536473
9.71 0.0539937
9.72 0.0545942
9.73 0.0554726
9.74 0.0566465
9.75 0.0580755
9.76 0.0597403
9.77 0.0616145
9.78 0.0636809
9.79 0.0658649
9.8 0.0681173
9.81 0.0703849
9.82 0.0725999
9.83 0.0747018
9.84 0.0766376
9.85 0.0783555
9.86 0.0797801
9.87 0.0808673
9.88 0.0816037
9.89 0.0819644
9.9 0.0819129
9.91 0.0814169
9.92 0.0805247
9.93 0.079249
9.94 0.077608
9.95 0.0755889
9.96 0.0732827
9.97 0.0707319
9.98 0.0679827
9.99 0.0650713
10 0.0620702
10.01 0.0590328
10.02 0.0560067
10.03 0.0530447
10.04 0.0501919
10.05 0.0474762
10.06 0.0449235
10.07 0.0425627
10.08 0.0404181
10.09 0.0384714
10.1 0.036718
10.11 0.0351483
10.12 0.0337642
10.13 0.0325152
10.14 0.0313734
10.15 0.0303082
10.16 0.0292884
10.17 0.0282716
10.18 0.0272244
10.19 0.0261166
10.2 0.0249099
10.21 0.0235789
10.22 0.0221118
10.23 0.0204956
10.24 0.018714
10.25 0.0167563
10.26 0.0146442
10.27 0.0123873
10.28 0.00999849
10.29 0.00748418
10.3 0.00488557
10.31 0.00222739
10.32 -0.000464155
10.33 -0.00315944
10.34 -0.00582749
10.35 -0.00844309
10.36 -0.010983
10.37 -0.0134159
10.38 -0.0157239
10.39 -0.0179009
10.4 -0.0199375
10.41 -0.0218201
10.42 -0.0235394
10.43 -0.0251138
10.44 -0.026549
10.45 -0.0278516
10.46 -0.029018
10.47 -0.0300794
10.48 -0.0310486
10.49 -0.0319388
10.5 -0.0327553
10.51 -0.0335182
10.52 -0.034239
10.53 -0.0349253
10.54 -0.0355805
10.55 -0.0362089
10.56 -0.0368126
10.57 -0.0373897
10.58 -0.0379345
10.59 -0.0384384
10.6 -0.0388977
10.61 -0.0393047
10.62 -0.0396504
10.63 -0.0399175
10.64 -0.0401087
10.65 -0.040219
10.66 -0.0402455
10.67 -0.0401758
10.68 -0.0400218
10.69 -0.0397905
10.7 -0.0394894
10.71 -0.0391239
10.72 -0.0387108
10.73 -0.0382686
10.74 -0.0378134
10.75 -0.0373635
10.76 -0.0369407
10.77 -0.036561
10.78 -0.0362405
10.79 -0.035995
10.8 -0.0358493
10.81 -0.0358009
10.82 -0.0358555
10.83 -0.0360152
10.84 -0.0362922
10.85 -0.036668
10.86 -0.0371305
10.87 -0.0376668
10.88 -0.0382649
10.89 -0.0389005
10.9 -0.0395493
10.91 -0.0401897
10.92 -0.0407961
10.93 -0.0413402
10.94 -0.0418055
10.95 -0.0421733
10.96 -0.0424254
10.97 -0.0425319
10.98 -0.0425014
10.99 -0.0423301
11 -0.042018
11.01 -0.0415519
11.02 -0.0409586
11.03 -0.0402546
11.04 -0.0394571
11.05 -0.0385812
11.06 -0.0376565
11.07 -0.0367115
11.08 -0.0357713
11.09 -0.0348638
11.1 -0.0340195
11.11 -0.033256
11.12 -0.0325921
11.13 -0.0320459
11.14 -0.0316455
11.15 -0.0313803
11.16 -0.0312517
11.17 -0.0312567
11.18 -0.0314038
11.19 -0.0316632
11.2 -0.0320154
11.21 -0.0324399
11.22 -0.0329159
11.23 -0.0334113
11.24 -0.0338968
11.25 -0.0343457
11.26 -0.0347261
11.27 -0.0350057
11.28 -0.0351695
11.29 -0.035199
11.3 -0.0350757
11.31 -0.0347689
11.32 -0.034295
11.33 -0.0336535
11.34 -0.0328488
11.35 -0.0318697
11.36 -0.0307509
11.37 -0.0295133
11.38 -0.0281778
11.39 -0.0267629
11.4 -0.0253019
11.41 -0.023825
11.42 -0.0223586
11.43 -0.0209316
11.44 -0.0195744
11.45 -0.0183033
11.46 -0.0171361
11.47 -0.0160901
11.48 -0.0151912
11.49 -0.014428
11.5 -0.0138014
11.51 -0.0133084
11.52 -0.0129589
11.53 -0.0127245
11.54 -0.0125891
11.55 -0.0125364
11.56 -0.0125531
11.57 -0.0126137
11.58 -0.0126957
11.59 -0.0127805
11.6 -0.0128489
11.61 -0.0128816
11.62 -0.0128683
11.63 -0.0127994
11.64 -0.0126669
11.65 -0.0124607
11.66 -0.0121906
11.67 -0.0118613
11.68 -0.01148
11.69 -0.0110528
11.7 -0.0105992
11.71 -0.0101344
11.72 -0.00967374
11.73 -0.00923668
11.74 -0.00884021
11.75 -0.00849724
11.76 -0.00822034
11.77 -0.0080256
11.78 -0.0079244
11.79 -0.00791348
11.8 -0.00799389
11.81 -0.00816574
11.82 -0.0084314
11.83 -0.00876987
11.84 -0.00916935
11.85 -0.00961581
11.86 -0.0100955
11.87 -0.0105847
11.88 -0.0110652
11.89 -0.0115191
11.9 -0.0119228
11.91 -0.0122604
11.92 -0.012521
11.93 -0.0126935
11.94 -0.0127625
