[DEFAULT]

version = diffpy.pdfgetx-2.2.1

# input and output specifications
dataformat = twotheta
inputfile = Synthetic_CSH_CSH_pdf_ramp_300_10_normalized.chi
backgroundfiles = quartz_030degC_normalized.chi
outputtype = gr

# PDF calculation setup
mode = xray
wavelength = 0.2113
twothetazero = 0
composition = CaO SiO2
bgscales = 1.0
rpoly = 0.9
qmaxinst = 23.7031
qmin = 0.5
qmax = 20
rmin = 0
rmax = 60
rstep = 0.01

# End of config --------------------------------------------------------------

#### start data
#S 1
#L r(Å)  G(Å$^{-2}$)
0 0
0.01 -0.00280522
0.02 -0.00551286
0.03 -0.00803997
0.04 -0.0103085
0.05 -0.0122001
0.06 -0.0136722
0.07 -0.0146912
0.08 -0.0152227
0.09 -0.0152045
0.1 -0.014633
0.11 -0.0135625
0.12 -0.0120215
0.13 -0.0100376
0.14 -0.00764991
0.15 -0.00497977
0.16 -0.00210849
0.17 0.000874961
0.18 0.00386324
0.19 0.00674472
0.2 0.00942225
0.21 0.011802
0.22 0.0137389
0.23 0.0151765
0.24 0.0160664
0.25 0.0163591
0.26 0.0159678
0.27 0.0148802
0.28 0.0131555
0.29 0.0108225
0.3 0.00790896
0.31 0.00446134
0.32 0.00063534
0.33 -0.0034617
0.34 -0.00770871
0.35 -0.0119535
0.36 -0.0160352
0.37 -0.0198075
0.38 -0.0231239
0.39 -0.02575
0.4 -0.0275835
0.41 -0.0285271
0.42 -0.0284759
0.43 -0.0272477
0.44 -0.0247783
0.45 -0.0211194
0.46 -0.0162654
0.47 -0.010188
0.48 -0.00286934
0.49 0.00547016
0.5 0.0147198
0.51 0.0247481
0.52 0.0354649
0.53 0.0465766
0.54 0.0578908
0.55 0.0692065
0.56 0.0802655
0.57 0.0908497
0.58 0.100769
0.59 0.109835
0.6 0.117772
0.61 0.12441
0.62 0.129705
0.63 0.133557
0.64 0.135825
0.65 0.136359
0.66 0.13533
0.67 0.132766
0.68 0.128714
0.69 0.123064
0.7 0.116152
0.71 0.108107
0.72 0.0990751
0.73 0.0891255
0.74 0.078522
0.75 0.067454
0.76 0.0560795
0.77 0.0445475
0.78 0.0330218
0.79 0.0216281
0.8 0.010464
0.81 -0.000376121
0.82 -0.0108068
0.83 -0.0208383
0.84 -0.0304654
0.85 -0.0396994
0.86 -0.048527
0.87 -0.0570565
0.88 -0.0653476
0.89 -0.0734654
0.9 -0.0814723
0.91 -0.0894517
0.92 -0.0974625
0.93 -0.105549
0.94 -0.113752
0.95 -0.122081
0.96 -0.130515
0.97 -0.13902
0.98 -0.14754
0.99 -0.15598
1 -0.164241
1.01 -0.172211
1.02 -0.179761
1.03 -0.186661
1.04 -0.192848
1.05 -0.198192
1.06 -0.202577
1.07 -0.20575
1.08 -0.207728
1.09 -0.208496
1.1 -0.208034
1.11 -0.206253
1.12 -0.203244
1.13 -0.199188
1.14 -0.194219
1.15 -0.188474
1.16 -0.18216
1.17 -0.175582
1.18 -0.168989
1.19 -0.162646
1.2 -0.15693
1.21 -0.152053
1.22 -0.148255
1.23 -0.145757
1.24 -0.144961
1.25 -0.145875
1.26 -0.148542
1.27 -0.152993
1.28 -0.159358
1.29 -0.16748
1.3 -0.177072
1.31 -0.187907
1.32 -0.199729
1.33 -0.212165
1.34 -0.224722
1.35 -0.236969
1.36 -0.248432
1.37 -0.258396
1.38 -0.266523
1.39 -0.272357
1.4 -0.275472
1.41 -0.275023
1.42 -0.270967
1.43 -0.263144
1.44 -0.25138
1.45 -0.235212
1.46 -0.214764
1.47 -0.190433
1.48 -0.162436
1.49 -0.130932
1.5 -0.0962525
1.51 -0.0592573
1.52 -0.020525
1.53 0.0193115
1.54 0.059504
1.55 0.0991937
1.56 0.137647
1.57 0.174135
1.58 0.207499
1.59 0.237276
1.6 0.262943
1.61 0.283977
1.62 0.299423
1.63 0.30904
1.64 0.312961
1.65 0.311088
1.66 0.303127
1.67 0.288966
1.68 0.269482
1.69 0.245048
1.7 0.216065
1.71 0.182668
1.72 0.14612
1.73 0.107098
1.74 0.0663113
1.75 0.0244451
1.76 -0.0175629
1.77 -0.0589944
1.78 -0.0991921
1.79 -0.13732
1.8 -0.172814
1.81 -0.205365
1.82 -0.234625
1.83 -0.260129
1.84 -0.281529
1.85 -0.299166
1.86 -0.3131
1.87 -0.323417
1.88 -0.329966
1.89 -0.333563
1.9 -0.334569
1.91 -0.333385
1.92 -0.330258
1.93 -0.325887
1.94 -0.320737
1.95 -0.315215
1.96 -0.309723
1.97 -0.304635
1.98 -0.30019
1.99 -0.296569
2 -0.293936
2.01 -0.292361
2.02 -0.291679
2.03 -0.291754
2.04 -0.29239
2.05 -0.293308
2.06 -0.294111
2.07 -0.294439
2.08 -0.293908
2.09 -0.291891
2.1 -0.288096
2.11 -0.282183
2.12 -0.273819
2.13 -0.26242
2.14 -0.24783
2.15 -0.230077
2.16 -0.209092
2.17 -0.184699
2.18 -0.156894
2.19 -0.126199
2.2 -0.0928941
2.21 -0.0572925
2.22 -0.0196694
2.23 0.0191808
2.24 0.0587243
2.25 0.0983968
2.26 0.137468
2.27 0.175326
2.28 0.21141
2.29 0.245171
2.3 0.275768
2.31 0.302787
2.32 0.326024
2.33 0.345173
2.34 0.359728
2.35 0.369355
2.36 0.374447
2.37 0.375045
2.38 0.37118
2.39 0.362603
2.4 0.350202
2.41 0.334319
2.42 0.315347
2.43 0.293405
2.44 0.269346
2.45 0.243696
2.46 0.216934
2.47 0.189513
2.48 0.161989
2.49 0.134806
2.5 0.108338
2.51 0.0829989
2.52 0.0591597
2.53 0.0369204
2.54 0.0164357
2.55 -0.00215013
2.56 -0.0185718
2.57 -0.0331044
2.58 -0.045809
2.59 -0.0567845
2.6 -0.0659554
2.61 -0.0737063
2.62 -0.0802427
2.63 -0.085753
2.64 -0.0903615
2.65 -0.0943259
2.66 -0.0978638
2.67 -0.101132
2.68 -0.104265
2.69 -0.107396
2.7 -0.110615
2.71 -0.113978
2.72 -0.117518
2.73 -0.12126
2.74 -0.125159
2.75 -0.129174
2.76 -0.133251
2.77 -0.137313
2.78 -0.141278
2.79 -0.145071
2.8 -0.148618
2.81 -0.151809
2.82 -0.154593
2.83 -0.15694
2.84 -0.158817
2.85 -0.160172
2.86 -0.160986
2.87 -0.161319
2.88 -0.161194
2.89 -0.160639
2.9 -0.159667
2.91 -0.158383
2.92 -0.156845
2.93 -0.155108
2.94 -0.15321
2.95 -0.151224
2.96 -0.14919
2.97 -0.147136
2.98 -0.145082
2.99 -0.14303
3 -0.140973
3.01 -0.138887
3.02 -0.136735
3.03 -0.134463
3.04 -0.132027
3.05 -0.129372
3.06 -0.126434
3.07 -0.123114
3.08 -0.119398
3.09 -0.115244
3.1 -0.110618
3.11 -0.105419
3.12 -0.0997078
3.13 -0.0934956
3.14 -0.0868038
3.15 -0.0796242
3.16 -0.0720405
3.17 -0.0641384
3.18 -0.0559899
3.19 -0.0476687
3.2 -0.0392727
3.21 -0.0308997
3.22 -0.0226305
3.23 -0.0145478
3.24 -0.00675206
3.25 0.000732427
3.26 0.00787041
3.27 0.0146429
3.28 0.0209962
3.29 0.027005
3.3 0.0327146
3.31 0.0381832
3.32 0.0434769
3.33 0.0487107
3.34 0.0539941
3.35 0.0594353
3.36 0.0651728
3.37 0.0713459
3.38 0.0780313
3.39 0.0853224
3.4 0.0933218
3.41 0.102173
3.42 0.111821
3.43 0.122276
3.44 0.133526
3.45 0.145635
3.46 0.158418
3.47 0.171769
3.48 0.185565
3.49 0.199679
3.5 0.213899
3.51 0.228032
3.52 0.241887
3.53 0.255223
3.54 0.267795
3.55 0.27946
3.56 0.290042
3.57 0.299335
3.58 0.307041
3.59 0.313213
3.6 0.317766
3.61 0.320642
3.62 0.321554
3.63 0.320759
3.64 0.318311
3.65 0.314282
3.66 0.308612
3.67 0.301542
3.68 0.293289
3.69 0.284011
3.7 0.273831
3.71 0.262954
3.72 0.25163
3.73 0.240033
3.74 0.228335
3.75 0.21672
3.76 0.205333
3.77 0.194289
3.78 0.183687
3.79 0.173689
3.8 0.164274
3.81 0.155461
3.82 0.147254
3.83 0.139701
3.84 0.132721
3.85 0.126233
3.86 0.120178
3.87 0.114506
3.88 0.109133
3.89 0.103956
3.9 0.098908
3.91 0.0939264
3.92 0.0889531
3.93 0.0839455
3.94 0.0788813
3.95 0.0737529
3.96 0.0685628
3.97 0.0633489
3.98 0.0581536
3.99 0.0530317
4 0.0480739
4.01 0.0433584
4.02 0.0389607
4.03 0.0349656
4.04 0.0315015
4.05 0.0286693
4.06 0.0264996
4.07 0.0250559
4.08 0.0244204
4.09 0.0247069
4.1 0.0258365
4.11 0.0278119
4.12 0.0306195
4.13 0.0343485
4.14 0.0388205
4.15 0.0439686
4.16 0.0497158
4.17 0.0560229
4.18 0.0627382
4.19 0.069737
4.2 0.0769127
4.21 0.0841553
4.22 0.0913392
4.23 0.098362
4.24 0.105133
4.25 0.111552
4.26 0.117504
4.27 0.122973
4.28 0.127914
4.29 0.132294
4.3 0.135997
4.31 0.139105
4.32 0.141623
4.33 0.143562
4.34 0.144878
4.35 0.145646
4.36 0.145917
4.37 0.145725
4.38 0.14507
4.39 0.143991
4.4 0.14255
4.41 0.140773
4.42 0.13867
4.43 0.136235
4.44 0.133518
4.45 0.130524
4.46 0.127256
4.47 0.123668
4.48 0.119801
4.49 0.115648
4.5 0.111206
4.51 0.106434
4.52 0.101355
4.53 0.0959825
4.54 0.090324
4.55 0.0843701
4.56 0.0781428
4.57 0.0716878
4.58 0.0650347
4.59 0.0582129
4.6 0.0512592
4.61 0.0442352
4.62 0.037186
4.63 0.0301576
4.64 0.023213
4.65 0.0163893
4.66 0.00972544
4.67 0.00325519
4.68 -0.00296402
4.69 -0.00892885
4.7 -0.014638
4.71 -0.0200902
4.72 -0.0252735
4.73 -0.0302102
4.74 -0.0349462
4.75 -0.0395156
4.76 -0.0439554
4.77 -0.0483134
4.78 -0.0526529
4.79 -0.0570246
4.8 -0.0614796
4.81 -0.0660938
4.82 -0.0708952
4.83 -0.0759212
4.84 -0.0812021
4.85 -0.0867958
4.86 -0.0926906
4.87 -0.0988757
4.88 -0.10534
4.89 -0.112083
4.9 -0.119062
4.91 -0.126217
4.92 -0.133496
4.93 -0.140844
4.94 -0.148187
4.95 -0.155453
4.96 -0.162575
4.97 -0.169488
4.98 -0.176075
4.99 -0.182316
5 -0.188159
5.01 -0.193559
5.02 -0.198417
5.03 -0.202748
5.04 -0.206553
5.05 -0.209828
5.06 -0.212531
5.07 -0.214686
5.08 -0.216353
5.09 -0.217562
5.1 -0.218326
5.11 -0.218664
5.12 -0.218662
5.13 -0.218358
5.14 -0.217787
5.15 -0.216954
5.16 -0.215927
5.17 -0.214727
5.18 -0.213372
5.19 -0.211851
5.2 -0.21018
5.21 -0.208359
5.22 -0.206375
5.23 -0.204192
5.24 -0.201786
5.25 -0.199146
5.26 -0.196243
5.27 -0.193036
5.28 -0.189474
5.29 -0.18557
5.3 -0.181306
5.31 -0.17667
5.32 -0.171605
5.33 -0.166174
5.34 -0.160393
5.35 -0.154285
5.36 -0.147851
5.37 -0.141167
5.38 -0.134292
5.39 -0.127281
5.4 -0.120195
5.41 -0.113109
5.42 -0.106095
5.43 -0.0992165
5.44 -0.0925482
5.45 -0.0861739
5.46 -0.0801205
5.47 -0.0744309
5.48 -0.0691436
5.49 -0.0643461
5.5 -0.0599887
5.51 -0.0560728
5.52 -0.0525896
5.53 -0.0495709
5.54 -0.0469418
5.55 -0.0446516
5.56 -0.042656
5.57 -0.0409225
5.58 -0.0393827
5.59 -0.0379657
5.6 -0.0366176
5.61 -0.035285
5.62 -0.0339105
5.63 -0.0324536
5.64 -0.0308809
5.65 -0.0291655
5.66 -0.0272676
5.67 -0.0252045
5.68 -0.0229806
5.69 -0.020609
5.7 -0.0180979
5.71 -0.0154947
5.72 -0.0128391
5.73 -0.0101723
5.74 -0.00754564
5.75 -0.00501257
5.76 -0.00261535
5.77 -0.000396951
5.78 0.00158981
5.79 0.00329066
5.8 0.00470365
5.81 0.00580938
5.82 0.00659204
5.83 0.00700484
5.84 0.00710229
5.85 0.00689912
5.86 0.0064172
5.87 0.00565614
5.88 0.00468216
5.89 0.00354133
5.9 0.00227569
5.91 0.000925386
5.92 -0.000455848
5.93 -0.00182156
5.94 -0.00313297
5.95 -0.00434853
5.96 -0.00542689
5.97 -0.00635538
5.98 -0.00711689
5.99 -0.00769768
6 -0.00806825
6.01 -0.00825712
6.02 -0.00827112
6.03 -0.00812108
6.04 -0.00780286
6.05 -0.00735117
6.06 -0.00678657
6.07 -0.00612518
6.08 -0.00537475
6.09 -0.00455072
6.1 -0.00366475
6.11 -0.00271868
6.12 -0.00170524
6.13 -0.000609446
6.14 0.000577929
6.15 0.00187801
6.16 0.0033192
6.17 0.00495837
6.18 0.00680799
6.19 0.00890308
6.2 0.011279
6.21 0.0140174
6.22 0.0171186
6.23 0.0206019
6.24 0.0244885
6.25 0.0288346
6.26 0.0336339
6.27 0.038856
6.28 0.0444888
6.29 0.0505314
6.3 0.0569631
6.31 0.0637028
6.32 0.0707015
6.33 0.0779056
6.34 0.0852606
6.35 0.0926726
6.36 0.100072
6.37 0.10739
6.38 0.114526
6.39 0.121423
6.4 0.128023
6.41 0.134271
6.42 0.140074
6.43 0.1454
6.44 0.150247
6.45 0.154593
6.46 0.1584
6.47 0.161645
6.48 0.16439
6.49 0.166653
6.5 0.168453
6.51 0.169773
6.52 0.170713
6.53 0.171313
6.54 0.171613
6.55 0.171621
6.56 0.171411
6.57 0.171023
6.58 0.170485
6.59 0.16981
6.6 0.169024
6.61 0.168143
6.62 0.16717
6.63 0.166093
6.64 0.164896
6.65 0.163572
6.66 0.162099
6.67 0.160448
6.68 0.158565
6.69 0.156447
6.7 0.154069
6.71 0.151408
6.72 0.148398
6.73 0.145062
6.74 0.141398
6.75 0.137407
6.76 0.133064
6.77 0.128404
6.78 0.123471
6.79 0.118297
6.8 0.112913
6.81 0.107369
6.82 0.101736
6.83 0.0960702
6.84 0.0904318
6.85 0.0848998
6.86 0.0795267
6.87 0.0743681
6.88 0.0694758
6.89 0.0649473
6.9 0.0607881
6.91 0.0570239
6.92 0.0536779
6.93 0.0508104
6.94 0.0484078
6.95 0.0464404
6.96 0.0448956
6.97 0.0437768
6.98 0.0430639
6.99 0.0426843
7 0.0425996
7.01 0.0427731
7.02 0.043178
7.03 0.043737
7.04 0.0444072
7.05 0.0451476
7.06 0.0459196
7.07 0.046681
7.08 0.0474032
7.09 0.0480623
7.1 0.0486299
7.11 0.0490951
7.12 0.0494557
7.13 0.049709
7.14 0.0498496
7.15 0.0498796
7.16 0.0498165
7.17 0.0496683
7.18 0.0494423
7.19 0.04914
7.2 0.048778
7.21 0.0483603
7.22 0.0478883
7.23 0.0473519
7.24 0.0467518
7.25 0.0460796
7.26 0.0453228
7.27 0.0444537
7.28 0.0434561
7.29 0.0423161
7.3 0.0410128
7.31 0.0395126
7.32 0.0377865
7.33 0.0358354
7.34 0.0336453
7.35 0.0311994
7.36 0.028464
7.37 0.0254737
7.38 0.0222347
7.39 0.0187589
7.4 0.0150347
7.41 0.0111185
7.42 0.00704253
7.43 0.00284053
7.44 -0.00145529
7.45 -0.0057928
7.46 -0.0101256
7.47 -0.0144113
7.48 -0.0185992
7.49 -0.0226387
7.5 -0.0265029
7.51 -0.0301596
7.52 -0.0335744
7.53 -0.0366956
7.54 -0.0395414
7.55 -0.0421039
7.56 -0.0443819
7.57 -0.0463401
7.58 -0.0480299
7.59 -0.0494724
7.6 -0.0506895
7.61 -0.0516885
7.62 -0.0525145
7.63 -0.053208
7.64 -0.0538
7.65 -0.0543179
7.66 -0.0547948
7.67 -0.0552618
7.68 -0.0557407
7.69 -0.0562507
7.7 -0.0568111
7.71 -0.0574242
7.72 -0.0580924
7.73 -0.0588131
7.74 -0.0595847
7.75 -0.060388
7.76 -0.0612076
7.77 -0.062026
7.78 -0.0628203
7.79 -0.0635688
7.8 -0.0642539
7.81 -0.0648581
7.82 -0.0653584
7.83 -0.0657383
7.84 -0.0659991
7.85 -0.066137
7.86 -0.0661489
7.87 -0.0660298
7.88 -0.0658059
7.89 -0.0654916
7.9 -0.0651048
7.91 -0.0646619
7.92 -0.0641965
7.93 -0.0637335
7.94 -0.063298
7.95 -0.0629228
7.96 -0.062631
7.97 -0.0624396
7.98 -0.0623653
7.99 -0.0624311
8 -0.0626489
8.01 -0.0630094
8.02 -0.0635107
8.03 -0.06415
8.04 -0.0649253
8.05 -0.0658033
8.06 -0.0667645
8.07 -0.0677867
8.08 -0.0688476
8.09 -0.0699138
8.1 -0.0709602
8.11 -0.071963
8.12 -0.0728906
8.13 -0.0737256
8.14 -0.0744568
8.15 -0.0750735
8.16 -0.0755606
8.17 -0.0759155
8.18 -0.076153
8.19 -0.0762821
8.2 -0.0763128
8.21 -0.0762572
8.22 -0.0761466
8.23 -0.0760024
8.24 -0.0758464
8.25 -0.0757055
8.26 -0.075601
8.27 -0.0755508
8.28 -0.0755694
8.29 -0.0756776
8.3 -0.0758761
8.31 -0.0761606
8.32 -0.0765252
8.33 -0.0769624
8.34 -0.0774519
8.35 -0.0779649
8.36 -0.078474
8.37 -0.0789459
8.38 -0.0793347
8.39 -0.0796102
8.4 -0.079737
8.41 -0.0796802
8.42 -0.0793688
8.43 -0.0788036
8.44 -0.0779618
8.45 -0.0768252
8.46 -0.0753452
8.47 -0.073539
8.48 -0.0714243
8.49 -0.0690121
8.5 -0.0663015
8.51 -0.063322
8.52 -0.0601299
8.53 -0.0567637
8.54 -0.0532632
8.55 -0.0496758
8.56 -0.0460649
8.57 -0.0424795
8.58 -0.0389679
8.59 -0.035602
8.6 -0.0324104
8.61 -0.02943
8.62 -0.0266924
8.63 -0.0242571
8.64 -0.0221244
8.65 -0.0202919
8.66 -0.0187622
8.67 -0.0175529
8.68 -0.0166505
8.69 -0.0160115
8.7 -0.0156117
8.71 -0.0154298
8.72 -0.0154433
8.73 -0.0155935
8.74 -0.0158461
8.75 -0.0161671
8.76 -0.0165253
8.77 -0.0168826
8.78 -0.0172137
8.79 -0.017498
8.8 -0.0177104
8.81 -0.0178442
8.82 -0.0178978
8.83 -0.017872
8.84 -0.0177671
8.85 -0.0175954
8.86 -0.0173766
8.87 -0.0171274
8.88 -0.0168661
8.89 -0.0166156
8.9 -0.0163949
8.91 -0.0162208
8.92 -0.0161077
8.93 -0.01608
8.94 -0.0161335
8.95 -0.0162703
8.96 -0.0164879
8.97 -0.0167866
8.98 -0.0171461
8.99 -0.0175462
9 -0.017966
9.01 -0.0183792
9.02 -0.018754
9.03 -0.0190634
9.04 -0.0192797
9.05 -0.0193697
9.06 -0.0192932
9.07 -0.0190437
9.08 -0.018604
9.09 -0.0179606
9.1 -0.0170723
9.11 -0.0159712
9.12 -0.0146626
9.13 -0.0131572
9.14 -0.011452
9.15 -0.00958797
9.16 -0.00759891
9.17 -0.00551544
9.18 -0.00336875
9.19 -0.00120117
9.2 0.000947808
9.21 0.00304379
9.22 0.00504919
9.23 0.00692117
9.24 0.00864634
9.25 0.0102052
9.26 0.0115832
9.27 0.0127426
9.28 0.0137124
9.29 0.0144984
9.3 0.0151127
9.31 0.0155564
9.32 0.0158697
9.33 0.0160859
9.34 0.0162358
9.35 0.0163522
9.36 0.0164763
9.37 0.0166433
9.38 0.0168854
9.39 0.017238
9.4 0.0177407
9.41 0.018401
9.42 0.0192345
9.43 0.0202523
9.44 0.0214869
9.45 0.0229065
9.46 0.0245024
9.47 0.0262612
9.48 0.02818
9.49 0.0302195
9.5 0.032349
9.51 0.0345409
9.52 0.0367668
9.53 0.0389926
9.54 0.0411897
9.55 0.0433337
9.56 0.0453993
9.57 0.0473607
9.58 0.0492159
9.59 0.0509587
9.6 0.0525871
9.61 0.0540905
9.62 0.0554966
9.63 0.05682
9.64 0.0580792
9.65 0.0592931
9.66 0.0604931
9.67 0.0617052
9.68 0.0629543
9.69 0.0642713
9.7 0.0656804
9.71 0.0671941
9.72 0.0688257
9.73 0.0705898
9.74 0.0724974
9.75 0.0745298
9.76 0.0766767
9.77 0.0789227
9.78 0.0812532
9.79 0.0836258
9.8 0.0860081
9.81 0.0883646
9.82 0.0906435
9.83 0.0928052
9.84 0.094812
9.85 0.0966246
9.86 0.0981822
9.87 0.0994488
9.88 0.100413
9.89 0.10105
9.9 0.101325
9.91 0.101203
9.92 0.100718
9.93 0.0998726
9.94 0.0986728
9.95 0.097089
9.96 0.0951958
9.97 0.0930194
9.98 0.0905903
9.99 0.0879176
10 0.0850641
10.01 0.0820725
10.02 0.0789788
10.03 0.0758152
10.04 0.0726215
10.05 0.069431
10.06 0.066269
10.07 0.0631599
10.08 0.0601268
10.09 0.0571741
10.1 0.0543077
10.11 0.0515298
10.12 0.0488482
10.13 0.0462423
10.14 0.0437012
10.15 0.0412121
10.16 0.038763
10.17 0.0363321
10.18 0.0339027
10.19 0.0314597
10.2 0.0289858
10.21 0.026468
10.22 0.0238997
10.23 0.0212753
10.24 0.0185888
10.25 0.0158379
10.26 0.0130332
10.27 0.010182
10.28 0.0072936
10.29 0.00437862
10.3 0.0014561
10.31 -0.00145897
10.32 -0.00435111
10.33 -0.0071977
10.34 -0.00998599
10.35 -0.0127037
10.36 -0.0153388
10.37 -0.0178722
10.38 -0.0202973
10.39 -0.0226158
10.4 -0.0248252
10.41 -0.0269194
10.42 -0.0288955
10.43 -0.0307693
10.44 -0.0325462
10.45 -0.0342315
10.46 -0.0358225
10.47 -0.0373392
10.48 -0.0387879
10.49 -0.0401744
10.5 -0.0414955
10.51 -0.0427604
10.52 -0.0439709
10.53 -0.0451255
10.54 -0.0462147
10.55 -0.0472337
10.56 -0.048179
10.57 -0.0490422
10.58 -0.0498081
10.59 -0.05046
10.6 -0.0509979
10.61 -0.0514131
10.62 -0.0516956
10.63 -0.0518211
10.64 -0.0518059
10.65 -0.0516494
10.66 -0.0513541
10.67 -0.0509088
10.68 -0.0503391
10.69 -0.0496609
10.7 -0.04889
10.71 -0.0480395
10.72 -0.0471364
10.73 -0.0462075
10.74 -0.045276
10.75 -0.044368
10.76 -0.0435123
10.77 -0.0427273
10.78 -0.0420319
10.79 -0.0414441
10.8 -0.0409934
10.81 -0.0406715
10.82 -0.0404819
10.83 -0.0404236
10.84 -0.0405073
10.85 -0.0407061
10.86 -0.041002
10.87 -0.0413763
10.88 -0.04181
10.89 -0.042272
10.9 -0.0427327
10.91 -0.0431652
10.92 -0.0435381
10.93 -0.0438179
10.94 -0.0439883
10.95 -0.0440295
10.96 -0.0439229
10.97 -0.0436363
10.98 -0.0431859
10.99 -0.0425715
11 -0.0417983
11.01 -0.0408583
11.02 -0.0397876
11.03 -0.0386103
11.04 -0.0373517
11.05 -0.0360376
11.06 -0.0347065
11.07 -0.0333933
11.08 -0.0321302
11.09 -0.030955
11.1 -0.0299068
11.11 -0.0290024
11.12 -0.0282632
11.13 -0.0277105
11.14 -0.0273804
11.15 -0.0272514
11.16 -0.0273221
11.17 -0.0275853
11.18 -0.0280507
11.19 -0.0286746
11.2 -0.0294287
11.21 -0.0302844
11.22 -0.0312131
11.23 -0.0321714
11.24 -0.0331196
11.25 -0.034022
11.26 -0.0348369
11.27 -0.0355217
11.28 -0.0360565
11.29 -0.036417
11.3 -0.0365786
11.31 -0.0365011
11.32 -0.0362049
11.33 -0.0356889
11.34 -0.0349577
11.35 -0.0339946
11.36 -0.0328439
11.37 -0.0315308
11.38 -0.0300809
11.39 -0.0285147
11.4 -0.0268738
11.41 -0.0251963
11.42 -0.0235142
11.43 -0.0218626
11.44 -0.0202782
11.45 -0.0187835
11.46 -0.0174009
11.47 -0.0161522
11.48 -0.0150691
11.49 -0.014141
11.5 -0.0133705
11.51 -0.0127559
11.52 -0.0123111
11.53 -0.0120045
11.54 -0.0118189
11.55 -0.011737
11.56 -0.011746
11.57 -0.0118178
11.58 -0.0119271
11.59 -0.0120539
11.6 -0.0121782
11.61 -0.0122801
11.62 -0.0123472
11.63 -0.0123696
11.64 -0.0123398
11.65 -0.0122494
11.66 -0.0121079
11.67 -0.0119212
11.68 -0.0116985
11.69 -0.0114504
11.7 -0.0111968
11.71 -0.0109546
11.72 -0.0107413
11.73 -0.0105814
11.74 -0.0104925
11.75 -0.0104873
11.76 -0.0105792
11.77 -0.0107865
11.78 -0.0111211
11.79 -0.0115755
11.8 -0.012149
11.81 -0.0128397
11.82 -0.0136486
11.83 -0.0145472
11.84 -0.0155192
11.85 -0.0165453
11.86 -0.0176054
11.87 -0.0186686
11.88 -0.0197102
11.89 -0.0207058
11.9 -0.0216215
11.91 -0.0224348
11.92 -0.0231298
11.93 -0.0236891
11.94 -0.0240874
