[DEFAULT]

version = diffpy.pdfgetx-2.2.1

# input and output specifications
dataformat = twotheta
inputfile = Synthetic_CSH_CSH_pdf_ramp_700_07_normalized.chi
backgroundfiles = quartz_030degC_normalized.chi
outputtype = gr

# PDF calculation setup
mode = xray
wavelength = 0.2113
twothetazero = 0
composition = CaO SiO2
bgscales = 1.0
rpoly = 0.9
qmaxinst = 23.7031
qmin = 0.5
qmax = 20
rmin = 0
rmax = 60
rstep = 0.01

# End of config --------------------------------------------------------------

#### start data
#S 1
#L r(Å)  G(Å$^{-2}$)
0 0
0.01 -0.00319615
0.02 -0.00627194
0.03 -0.00912548
0.04 -0.0116617
0.05 -0.0137375
0.06 -0.0153043
0.07 -0.0163257
0.08 -0.0167655
0.09 -0.0165576
0.1 -0.0157077
0.11 -0.0142897
0.12 -0.0123481
0.13 -0.00992823
0.14 -0.00709306
0.15 -0.00398929
0.16 -0.000720145
0.17 0.00260441
0.18 0.00584367
0.19 0.00888092
0.2 0.0116079
0.21 0.0139239
0.22 0.0156683
0.23 0.0167988
0.24 0.0172809
0.25 0.0170796
0.26 0.016123
0.27 0.0144263
0.28 0.0120792
0.29 0.00913775
0.3 0.00566047
0.31 0.00173048
0.32 -0.00247773
0.33 -0.00683545
0.34 -0.0112039
0.35 -0.0153938
0.36 -0.0192619
0.37 -0.0226628
0.38 -0.0254569
0.39 -0.0274081
0.4 -0.0284488
0.41 -0.0285117
0.42 -0.0275214
0.43 -0.0253283
0.44 -0.0219094
0.45 -0.0173523
0.46 -0.0116844
0.47 -0.0049146
0.48 0.00293386
0.49 0.0116345
0.5 0.0210623
0.51 0.0310774
0.52 0.0415615
0.53 0.05226
0.54 0.0629972
0.55 0.0735949
0.56 0.0838143
0.57 0.093487
0.58 0.102465
0.59 0.1106
0.6 0.117666
0.61 0.123538
0.62 0.128203
0.63 0.131594
0.64 0.133602
0.65 0.134112
0.66 0.13328
0.67 0.131135
0.68 0.127712
0.69 0.12291
0.7 0.117004
0.71 0.110088
0.72 0.102268
0.73 0.0935672
0.74 0.0841923
0.75 0.0742847
0.76 0.0639574
0.77 0.0533015
0.78 0.0424415
0.79 0.0314892
0.8 0.0205248
0.81 0.00962351
0.82 -0.00114046
0.83 -0.0117327
0.84 -0.0221216
0.85 -0.0322839
0.86 -0.0421724
0.87 -0.0518201
0.88 -0.0612311
0.89 -0.0704136
0.9 -0.079352
0.91 -0.0880804
0.92 -0.0966161
0.93 -0.104967
0.94 -0.113119
0.95 -0.121075
0.96 -0.128837
0.97 -0.136392
0.98 -0.143705
0.99 -0.15073
1 -0.157458
1.01 -0.163855
1.02 -0.169879
1.03 -0.175426
1.04 -0.180517
1.05 -0.185119
1.06 -0.189202
1.07 -0.192675
1.08 -0.195576
1.09 -0.197924
1.1 -0.19973
1.11 -0.200974
1.12 -0.201711
1.13 -0.202029
1.14 -0.201993
1.15 -0.201666
1.16 -0.201136
1.17 -0.200524
1.18 -0.199925
1.19 -0.199441
1.2 -0.199211
1.21 -0.199304
1.22 -0.199802
1.23 -0.200773
1.24 -0.202348
1.25 -0.204511
1.26 -0.207259
1.27 -0.210579
1.28 -0.214482
1.29 -0.218877
1.3 -0.223635
1.31 -0.228641
1.32 -0.233748
1.33 -0.238759
1.34 -0.243479
1.35 -0.247707
1.36 -0.251219
1.37 -0.253637
1.38 -0.254852
1.39 -0.25465
1.4 -0.252826
1.41 -0.248929
1.42 -0.242962
1.43 -0.234842
1.44 -0.224468
1.45 -0.211556
1.46 -0.196142
1.47 -0.178414
1.48 -0.158446
1.49 -0.136251
1.5 -0.111931
1.51 -0.0859314
1.52 -0.0585154
1.53 -0.0299751
1.54 -0.000603822
1.55 0.0290739
1.56 0.0586631
1.57 0.0877539
1.58 0.115748
1.59 0.142266
1.6 0.166927
1.61 0.189336
1.62 0.208844
1.63 0.225133
1.64 0.238092
1.65 0.247479
1.66 0.252884
1.67 0.253957
1.68 0.251034
1.69 0.244112
1.7 0.233186
1.71 0.217901
1.72 0.199016
1.73 0.176772
1.74 0.151461
1.75 0.123096
1.76 0.0924152
1.77 0.0598951
1.78 0.0259694
1.79 -0.00896101
1.8 -0.0443276
1.81 -0.0796261
1.82 -0.11442
1.83 -0.148216
1.84 -0.180494
1.85 -0.211013
1.86 -0.239466
1.87 -0.265547
1.88 -0.288689
1.89 -0.309085
1.9 -0.326633
1.91 -0.341283
1.92 -0.352637
1.93 -0.361087
1.94 -0.366795
1.95 -0.369896
1.96 -0.370336
1.97 -0.368429
1.98 -0.364543
1.99 -0.358901
2 -0.351662
2.01 -0.34304
2.02 -0.333402
2.03 -0.322952
2.04 -0.311866
2.05 -0.30027
2.06 -0.288372
2.07 -0.276269
2.08 -0.264026
2.09 -0.251668
2.1 -0.239211
2.11 -0.226627
2.12 -0.213869
2.13 -0.200833
2.14 -0.187426
2.15 -0.173568
2.16 -0.15916
2.17 -0.14406
2.18 -0.128136
2.19 -0.111384
2.2 -0.0937556
2.21 -0.0752067
2.22 -0.0556371
2.23 -0.0352184
2.24 -0.0140286
2.25 0.00782004
2.26 0.0302279
2.27 0.0529213
2.28 0.0756703
2.29 0.0982282
2.3 0.120249
2.31 0.141411
2.32 0.161443
2.33 0.180042
2.34 0.196782
2.35 0.211243
2.36 0.223338
2.37 0.232827
2.38 0.239439
2.39 0.242632
2.4 0.242692
2.41 0.239558
2.42 0.233215
2.43 0.223268
2.44 0.210228
2.45 0.194316
2.46 0.175746
2.47 0.154567
2.48 0.131252
2.49 0.106289
2.5 0.0800616
2.51 0.052948
2.52 0.0254359
2.53 -0.00197299
2.54 -0.0288558
2.55 -0.0547704
2.56 -0.0791118
2.57 -0.10167
2.58 -0.122131
2.59 -0.140219
2.6 -0.155311
2.61 -0.167553
2.62 -0.176886
2.63 -0.183267
2.64 -0.186411
2.65 -0.186549
2.66 -0.183988
2.67 -0.178915
2.68 -0.171438
2.69 -0.161825
2.7 -0.150605
2.71 -0.138117
2.72 -0.124704
2.73 -0.110732
2.74 -0.0966746
2.75 -0.0828865
2.76 -0.069705
2.77 -0.0576198
2.78 -0.0468253
2.79 -0.0375435
2.8 -0.0299709
2.81 -0.0244676
2.82 -0.0210536
2.83 -0.019667
2.84 -0.0203021
2.85 -0.0230291
2.86 -0.0277778
2.87 -0.0342117
2.88 -0.042143
2.89 -0.0513789
2.9 -0.0617395
2.91 -0.0727902
2.92 -0.0842475
2.93 -0.095822
2.94 -0.107157
2.95 -0.117959
2.96 -0.127965
2.97 -0.136929
2.98 -0.144469
2.99 -0.150431
3 -0.154731
3.01 -0.157248
3.02 -0.157772
3.03 -0.156201
3.04 -0.152712
3.05 -0.147339
3.06 -0.140105
3.07 -0.130951
3.08 -0.12025
3.09 -0.108161
3.1 -0.0948611
3.11 -0.0804228
3.12 -0.0652152
3.13 -0.0494605
3.14 -0.0333695
3.15 -0.0171575
3.16 -0.00106305
3.17 0.0147258
3.18 0.0300411
3.19 0.0446802
3.2 0.0584744
3.21 0.071383
3.22 0.0833281
3.23 0.0942245
3.24 0.103932
3.25 0.112584
3.26 0.1202
3.27 0.126818
3.28 0.132363
3.29 0.13705
3.3 0.140975
3.31 0.144234
3.32 0.146881
3.33 0.149073
3.34 0.150944
3.35 0.152599
3.36 0.154137
3.37 0.155666
3.38 0.157277
3.39 0.15904
3.4 0.16102
3.41 0.163293
3.42 0.165859
3.43 0.16873
3.44 0.171907
3.45 0.175419
3.46 0.179192
3.47 0.183186
3.48 0.18735
3.49 0.191634
3.5 0.195954
3.51 0.200238
3.52 0.204411
3.53 0.208383
3.54 0.212065
3.55 0.215404
3.56 0.218339
3.57 0.220794
3.58 0.222662
3.59 0.223965
3.6 0.224672
3.61 0.224763
3.62 0.224132
3.63 0.222871
3.64 0.220998
3.65 0.218534
3.66 0.215452
3.67 0.211834
3.68 0.207756
3.69 0.203268
3.7 0.198408
3.71 0.193243
3.72 0.187865
3.73 0.182332
3.74 0.176704
3.75 0.171041
3.76 0.165401
3.77 0.159829
3.78 0.15436
3.79 0.149047
3.8 0.143891
3.81 0.138901
3.82 0.134077
3.83 0.129429
3.84 0.124926
3.85 0.120537
3.86 0.11623
3.87 0.11197
3.88 0.107711
3.89 0.103407
3.9 0.0990166
3.91 0.0944928
3.92 0.0897774
3.93 0.0848563
3.94 0.0797047
3.95 0.0743052
3.96 0.0686095
3.97 0.0626605
3.98 0.0564747
3.99 0.0500783
4 0.0434945
4.01 0.0367941
4.02 0.0300464
4.03 0.0233226
4.04 0.0167166
4.05 0.0103344
4.06 0.00425799
4.07 -0.00141811
4.08 -0.00657685
4.09 -0.0110579
4.1 -0.0148375
4.11 -0.0178349
4.12 -0.0199781
4.13 -0.0210543
4.14 -0.021154
4.15 -0.0202506
4.16 -0.0183307
4.17 -0.015281
4.18 -0.0112053
4.19 -0.00619038
4.2 -0.000297177
4.21 0.00645209
4.22 0.0139463
4.23 0.0220108
4.24 0.0305238
4.25 0.039361
4.26 0.0483743
4.27 0.0573864
4.28 0.0662538
4.29 0.0748355
4.3 0.0829075
4.31 0.0903945
4.32 0.0971822
4.33 0.103168
4.34 0.108151
4.35 0.112121
4.36 0.11507
4.37 0.116968
4.38 0.117724
4.39 0.117353
4.4 0.115974
4.41 0.11364
4.42 0.110387
4.43 0.106249
4.44 0.101427
4.45 0.0960293
4.46 0.0901676
4.47 0.0839225
4.48 0.0774809
4.49 0.0709582
4.5 0.0644654
4.51 0.0581338
4.52 0.0520596
4.53 0.0463159
4.54 0.0409686
4.55 0.0361095
4.56 0.0317789
4.57 0.0279572
4.58 0.0246457
4.59 0.0218505
4.6 0.0195738
4.61 0.0177135
4.62 0.0162154
4.63 0.015017
4.64 0.0140724
4.65 0.0132611
4.66 0.0125052
4.67 0.0117269
4.68 0.0108293
4.69 0.009739
4.7 0.00839663
4.71 0.00674626
4.72 0.00470842
4.73 0.00224252
4.74 -0.000645834
4.75 -0.00396832
4.76 -0.00774393
4.77 -0.0119908
4.78 -0.0166349
4.79 -0.0216444
4.8 -0.0269805
4.81 -0.0326321
4.82 -0.0384975
4.83 -0.0445212
4.84 -0.0506465
4.85 -0.056815
4.86 -0.0629594
4.87 -0.0690269
4.88 -0.0749705
4.89 -0.080731
4.9 -0.086268
4.91 -0.0915676
4.92 -0.0966096
4.93 -0.101368
4.94 -0.105818
4.95 -0.10999
4.96 -0.113894
4.97 -0.117539
4.98 -0.120908
4.99 -0.124059
5 -0.127011
5.01 -0.129787
5.02 -0.132388
5.03 -0.134848
5.04 -0.137188
5.05 -0.139417
5.06 -0.141534
5.07 -0.14354
5.08 -0.14544
5.09 -0.147224
5.1 -0.14887
5.11 -0.150346
5.12 -0.151645
5.13 -0.15274
5.14 -0.153603
5.15 -0.154161
5.16 -0.154423
5.17 -0.154361
5.18 -0.153951
5.19 -0.153121
5.2 -0.151887
5.21 -0.150251
5.22 -0.148207
5.23 -0.145723
5.24 -0.142815
5.25 -0.139529
5.26 -0.135888
5.27 -0.13191
5.28 -0.127618
5.29 -0.12309
5.3 -0.118375
5.31 -0.113522
5.32 -0.108582
5.33 -0.103628
5.34 -0.0987152
5.35 -0.0938985
5.36 -0.0892555
5.37 -0.0848274
5.38 -0.0806528
5.39 -0.0767704
5.4 -0.0732441
5.41 -0.0700983
5.42 -0.0673265
5.43 -0.0649385
5.44 -0.0629558
5.45 -0.0613953
5.46 -0.0602002
5.47 -0.0593501
5.48 -0.0588213
5.49 -0.058617
5.5 -0.0586524
5.51 -0.0588863
5.52 -0.0592747
5.53 -0.05978
5.54 -0.0603376
5.55 -0.0608981
5.56 -0.0614162
5.57 -0.061837
5.58 -0.0621144
5.59 -0.062219
5.6 -0.062119
5.61 -0.0617741
5.62 -0.061144
5.63 -0.0602394
5.64 -0.0590505
5.65 -0.0575696
5.66 -0.0557588
5.67 -0.053669
5.68 -0.0513128
5.69 -0.0487071
5.7 -0.0458461
5.71 -0.0427821
5.72 -0.0395501
5.73 -0.0361806
5.74 -0.0326996
5.75 -0.0291495
5.76 -0.0255709
5.77 -0.0219974
5.78 -0.0184653
5.79 -0.0150153
5.8 -0.011671
5.81 -0.00845837
5.82 -0.00540271
5.83 -0.00255014
5.84 0.000108049
5.85 0.00256066
5.86 0.00480038
5.87 0.00679521
5.88 0.00856964
5.89 0.0101353
5.9 0.0115017
5.91 0.0126658
5.92 0.013652
5.93 0.0144921
5.94 0.0152079
5.95 0.0158189
5.96 0.0163505
5.97 0.0168387
5.98 0.0173091
5.99 0.0177873
6 0.0183056
6.01 0.0188842
6.02 0.0195431
6.03 0.0202999
6.04 0.0211863
6.05 0.0222026
6.06 0.0233532
6.07 0.0246416
6.08 0.0260811
6.09 0.027663
6.1 0.0293705
6.11 0.031193
6.12 0.0331215
6.13 0.0351411
6.14 0.037223
6.15 0.0393474
6.16 0.0414937
6.17 0.0436376
6.18 0.0457564
6.19 0.0478303
6.2 0.0498415
6.21 0.0517608
6.22 0.053582
6.23 0.0552964
6.24 0.0568968
6.25 0.0583673
6.26 0.059711
6.27 0.0609386
6.28 0.0620561
6.29 0.0630673
6.3 0.0639817
6.31 0.0648236
6.32 0.0656084
6.33 0.0663524
6.34 0.0670724
6.35 0.0677906
6.36 0.0685231
6.37 0.069285
6.38 0.070097
6.39 0.0709668
6.4 0.0719013
6.41 0.072906
6.42 0.0739906
6.43 0.0751515
6.44 0.0763801
6.45 0.0776695
6.46 0.0790131
6.47 0.0803989
6.48 0.0818084
6.49 0.0832273
6.5 0.0846402
6.51 0.0860268
6.52 0.0873744
6.53 0.0886697
6.54 0.0899013
6.55 0.0910482
6.56 0.0921117
6.57 0.0930896
6.58 0.0939811
6.59 0.0947803
6.6 0.0954968
6.61 0.0961439
6.62 0.0967322
6.63 0.0972723
6.64 0.0977795
6.65 0.0982732
6.66 0.0987683
6.67 0.0992801
6.68 0.0998276
6.69 0.100419
6.7 0.101063
6.71 0.101766
6.72 0.102538
6.73 0.10337
6.74 0.104254
6.75 0.10518
6.76 0.106133
6.77 0.107093
6.78 0.108034
6.79 0.108931
6.8 0.10975
6.81 0.110454
6.82 0.11102
6.83 0.111418
6.84 0.111614
6.85 0.111551
6.86 0.111234
6.87 0.110642
6.88 0.10976
6.89 0.108533
6.9 0.106993
6.91 0.105145
6.92 0.102997
6.93 0.100532
6.94 0.0977854
6.95 0.0947967
6.96 0.0915941
6.97 0.0882001
6.98 0.0846513
6.99 0.0810018
7 0.0772896
7.01 0.0735531
7.02 0.0698369
7.03 0.0661774
7.04 0.0626061
7.05 0.0591509
7.06 0.0558578
7.07 0.0527291
7.08 0.0497738
7.09 0.046998
7.1 0.0444202
7.11 0.0420247
7.12 0.0397895
7.13 0.0376982
7.14 0.0357366
7.15 0.0338788
7.16 0.0320864
7.17 0.0303311
7.18 0.0285835
7.19 0.0268082
7.2 0.0249786
7.21 0.0230707
7.22 0.0210636
7.23 0.0189217
7.24 0.0166467
7.25 0.0142342
7.26 0.0116831
7.27 0.00898394
7.28 0.00615516
7.29 0.00321931
7.3 0.000195856
7.31 -0.00289446
7.32 -0.00602092
7.33 -0.00914889
7.34 -0.0122481
7.35 -0.0152855
7.36 -0.0182163
7.37 -0.0210212
7.38 -0.0236746
7.39 -0.0261536
7.4 -0.0284084
7.41 -0.0304491
7.42 -0.0322693
7.43 -0.0338649
7.44 -0.0352132
7.45 -0.0363337
7.46 -0.0372495
7.47 -0.0379759
7.48 -0.0385217
7.49 -0.0389096
7.5 -0.0391792
7.51 -0.0393562
7.52 -0.0394656
7.53 -0.039533
7.54 -0.0395905
7.55 -0.0396602
7.56 -0.0397618
7.57 -0.039921
7.58 -0.040145
7.59 -0.0404413
7.6 -0.0408138
7.61 -0.0412708
7.62 -0.0418028
7.63 -0.0423975
7.64 -0.0430438
7.65 -0.043729
7.66 -0.0444344
7.67 -0.0451391
7.68 -0.0458249
7.69 -0.0464723
7.7 -0.0470555
7.71 -0.0475647
7.72 -0.0479867
7.73 -0.0483108
7.74 -0.0485128
7.75 -0.0486031
7.76 -0.0485828
7.77 -0.0484553
7.78 -0.0482173
7.79 -0.0478867
7.8 -0.047482
7.81 -0.0470188
7.82 -0.0465127
7.83 -0.0459856
7.84 -0.0454601
7.85 -0.044955
7.86 -0.0444903
7.87 -0.0440906
7.88 -0.0437646
7.89 -0.0435239
7.9 -0.0433773
7.91 -0.043346
7.92 -0.0434177
7.93 -0.0435895
7.94 -0.0438564
7.95 -0.0442183
7.96 -0.0446565
7.97 -0.0451525
7.98 -0.0456903
7.99 -0.0462529
8 -0.0468185
8.01 -0.0473667
8.02 -0.0478797
8.03 -0.0483383
8.04 -0.0487181
8.05 -0.0490136
8.06 -0.0492144
8.07 -0.0493128
8.08 -0.0492874
8.09 -0.0491523
8.1 -0.0489103
8.11 -0.0485663
8.12 -0.0481181
8.13 -0.0475837
8.14 -0.0469796
8.15 -0.0463193
8.16 -0.0456155
8.17 -0.0448856
8.18 -0.0441479
8.19 -0.0434162
8.2 -0.0427048
8.21 -0.0420297
8.22 -0.0413971
8.23 -0.040814
8.24 -0.040285
8.25 -0.0398212
8.26 -0.0394134
8.27 -0.0390584
8.28 -0.0387508
8.29 -0.0384875
8.3 -0.0382555
8.31 -0.0380428
8.32 -0.0378391
8.33 -0.0376321
8.34 -0.0374089
8.35 -0.0371599
8.36 -0.0368757
8.37 -0.0365468
8.38 -0.0361614
8.39 -0.0357211
8.4 -0.0352235
8.41 -0.034668
8.42 -0.0340475
8.43 -0.0333742
8.44 -0.0326534
8.45 -0.0318909
8.46 -0.0310907
8.47 -0.0302639
8.48 -0.0294197
8.49 -0.0285657
8.5 -0.0277089
8.51 -0.0268564
8.52 -0.0260129
8.53 -0.0251814
8.54 -0.0243638
8.55 -0.0235607
8.56 -0.022768
8.57 -0.0219818
8.58 -0.0211966
8.59 -0.0204036
8.6 -0.0195949
8.61 -0.018762
8.62 -0.0178964
8.63 -0.0169836
8.64 -0.0160177
8.65 -0.0149939
8.66 -0.013907
8.67 -0.012748
8.68 -0.0115151
8.69 -0.0102152
8.7 -0.00885184
8.71 -0.00742911
8.72 -0.00595292
8.73 -0.0044411
8.74 -0.00290649
8.75 -0.00136349
8.76 0.000168576
8.77 0.00167249
8.78 0.00313159
8.79 0.00452958
8.8 0.00584002
8.81 0.00705283
8.82 0.00815948
8.83 0.00915048
8.84 0.0100088
8.85 0.0107303
8.86 0.0113249
8.87 0.0117962
8.88 0.0121462
8.89 0.0123782
8.9 0.0125193
8.91 0.0125852
8.92 0.0125937
8.93 0.0125611
8.94 0.0125165
8.95 0.0124807
8.96 0.0124742
8.97 0.0125251
8.98 0.0126499
8.99 0.0128623
9 0.0131752
9.01 0.0136083
9.02 0.0141688
9.03 0.01485
9.04 0.0156502
9.05 0.0165688
9.06 0.0176033
9.07 0.0187274
9.08 0.0199255
9.09 0.0211795
9.1 0.0224717
9.11 0.0237725
9.12 0.0250595
9.13 0.0263105
9.14 0.0274944
9.15 0.0285927
9.16 0.0295899
9.17 0.0304706
9.18 0.0312103
9.19 0.031799
9.2 0.032242
9.21 0.0325376
9.22 0.0326821
9.23 0.0326719
9.24 0.032534
9.25 0.0322807
9.26 0.0319269
9.27 0.0314798
9.28 0.0309731
9.29 0.0304266
9.3 0.0298598
9.31 0.0292943
9.32 0.028751
9.33 0.0282462
9.34 0.0277939
9.35 0.0274123
9.36 0.0271108
9.37 0.0268895
9.38 0.0267501
9.39 0.0266949
9.4 0.0267238
9.41 0.0268195
9.42 0.0269715
9.43 0.0271677
9.44 0.0273957
9.45 0.0276336
9.46 0.0278654
9.47 0.0280747
9.48 0.0282392
9.49 0.0283457
9.5 0.0283829
9.51 0.0283399
9.52 0.0282002
9.53 0.0279582
9.54 0.0276181
9.55 0.0271805
9.56 0.0266445
9.57 0.0260115
9.58 0.0253013
9.59 0.0245251
9.6 0.0236958
9.61 0.0228246
9.62 0.0219347
9.63 0.0210422
9.64 0.0201629
9.65 0.019318
9.66 0.0185211
9.67 0.0177837
9.68 0.0171168
9.69 0.0165368
9.7 0.0160498
9.71 0.0156535
9.72 0.0153488
9.73 0.0151384
9.74 0.0150231
9.75 0.0149864
9.76 0.0150198
9.77 0.0151142
9.78 0.0152635
9.79 0.0154471
9.8 0.0156526
9.81 0.0158677
9.82 0.0160787
9.83 0.0162733
9.84 0.0164418
9.85 0.016576
9.86 0.0166648
9.87 0.0167032
9.88 0.0166916
9.89 0.0166289
9.9 0.0165136
9.91 0.0163458
9.92 0.0161352
9.93 0.0158873
9.94 0.0156082
9.95 0.0153025
9.96 0.0149819
9.97 0.0146539
9.98 0.0143253
9.99 0.0140039
10 0.0136955
10.01 0.013404
10.02 0.0131322
10.03 0.0128839
10.04 0.0126587
10.05 0.0124536
10.06 0.0122658
10.07 0.0120917
10.08 0.0119258
10.09 0.0117606
10.1 0.0115897
10.11 0.0114058
10.12 0.0111981
10.13 0.010962
10.14 0.0106915
10.15 0.0103808
10.16 0.010019
10.17 0.00960671
10.18 0.00914326
10.19 0.00862776
10.2 0.00805606
10.21 0.00743157
10.22 0.00676103
10.23 0.00604865
10.24 0.00529794
10.25 0.00451415
10.26 0.00370754
10.27 0.00288473
10.28 0.00205234
10.29 0.00121736
10.3 0.000386758
10.31 -0.000434318
10.32 -0.00124151
10.33 -0.00202876
10.34 -0.00279537
10.35 -0.00354082
10.36 -0.00426514
10.37 -0.00496765
10.38 -0.00565136
10.39 -0.00632055
10.4 -0.00697871
10.41 -0.00762961
10.42 -0.00827797
10.43 -0.00892846
10.44 -0.00958481
10.45 -0.0102504
10.46 -0.0109297
10.47 -0.0116227
10.48 -0.0123298
10.49 -0.0130503
10.5 -0.0137838
10.51 -0.0145253
10.52 -0.0152705
10.53 -0.0160139
10.54 -0.0167484
10.55 -0.0174661
10.56 -0.0181603
10.57 -0.018824
10.58 -0.0194473
10.59 -0.0200203
10.6 -0.020541
10.61 -0.0210047
10.62 -0.0214066
10.63 -0.0217359
10.64 -0.0220013
10.65 -0.0222038
10.66 -0.0223464
10.67 -0.022427
10.68 -0.0224591
10.69 -0.0224521
10.7 -0.0224154
10.71 -0.0223586
10.72 -0.0222956
10.73 -0.0222394
10.74 -0.0222018
10.75 -0.0221968
10.76 -0.0222392
10.77 -0.0223353
10.78 -0.0224934
10.79 -0.0227217
10.8 -0.0230348
10.81 -0.023425
10.82 -0.0238923
10.83 -0.0244344
10.84 -0.0250557
10.85 -0.0257401
10.86 -0.0264764
10.87 -0.0272537
10.88 -0.0280605
10.89 -0.0288789
10.9 -0.0296922
10.91 -0.0304848
10.92 -0.031238
10.93 -0.0319316
10.94 -0.0325553
10.95 -0.0330963
10.96 -0.0335413
10.97 -0.033867
10.98 -0.0340806
10.99 -0.0341782
11 -0.0341583
11.01 -0.0340062
11.02 -0.0337407
11.03 -0.0333711
11.04 -0.0329068
11.05 -0.0323523
11.06 -0.0317267
11.07 -0.0310498
11.08 -0.0303377
11.09 -0.0296066
11.1 -0.0288762
11.11 -0.0281637
11.12 -0.0274841
11.13 -0.0268524
11.14 -0.0262891
11.15 -0.0257964
11.16 -0.025381
11.17 -0.0250472
11.18 -0.0248079
11.19 -0.024651
11.2 -0.02457
11.21 -0.0245573
11.22 -0.0246078
11.23 -0.0247042
11.24 -0.0248289
11.25 -0.0249659
11.26 -0.0250971
11.27 -0.0252011
11.28 -0.0252614
11.29 -0.0252613
11.3 -0.0251832
11.31 -0.0250003
11.32 -0.0247118
11.33 -0.0243085
11.34 -0.0237834
11.35 -0.0231143
11.36 -0.0223162
11.37 -0.0213942
11.38 -0.020354
11.39 -0.0191939
11.4 -0.0179326
11.41 -0.0165906
11.42 -0.015184
11.43 -0.0137291
11.44 -0.0122476
11.45 -0.0107634
11.46 -0.00929642
11.47 -0.00786725
11.48 -0.00650365
11.49 -0.00521657
11.5 -0.00402074
11.51 -0.00292868
11.52 -0.0019678
11.53 -0.00113107
11.54 -0.000419886
11.55 0.000165494
11.56 0.000615612
11.57 0.000943692
11.58 0.00116592
11.59 0.00129403
11.6 0.00133781
11.61 0.00131417
11.62 0.00124776
11.63 0.00115658
11.64 0.0010592
11.65 0.000977919
11.66 0.000929928
11.67 0.000930878
11.68 0.000994707
11.69 0.00114554
11.7 0.00138368
11.71 0.00171387
11.72 0.00213911
11.73 0.00266924
11.74 0.00329537
11.75 0.0040056
11.76 0.0047906
11.77 0.00564179
11.78 0.00654358
11.79 0.00747417
11.8 0.00841623
11.81 0.00935098
11.82 0.0102542
11.83 0.0111095
11.84 0.0118997
11.85 0.0126088
11.86 0.0132069
11.87 0.0136934
11.88 0.0140609
11.89 0.0143029
11.9 0.0144023
11.91 0.014366
