[DEFAULT]

version = diffpy.pdfgetx-2.2.1

# input and output specifications
dataformat = twotheta
inputfile = Synthetic_CSH_CSH_pdf_ramp_1000_06_normalized.chi
backgroundfiles = quartz_030degC_normalized.chi
outputtype = gr

# PDF calculation setup
mode = xray
wavelength = 0.2113
twothetazero = 0
composition = CaO SiO2
bgscales = 1.0
rpoly = 0.9
qmaxinst = 23.7031
qmin = 0.5
qmax = 20
rmin = 0
rmax = 60
rstep = 0.01

# End of config --------------------------------------------------------------

#### start data
#S 1
#L r(Å)  G(Å$^{-2}$)
0 0
0.01 0.000382313
0.02 0.000740073
0.03 0.00105293
0.04 0.00130269
0.05 0.00146327
0.06 0.00152876
0.07 0.00149685
0.08 0.0013668
0.09 0.0011359
0.1 0.000815974
0.11 0.000429114
0.12 -6.34505e-06
0.13 -0.000469333
0.14 -0.0009328
0.15 -0.00137023
0.16 -0.00175848
0.17 -0.0020761
0.18 -0.00228847
0.19 -0.0023949
0.2 -0.00238776
0.21 -0.00226513
0.22 -0.00201894
0.23 -0.00167212
0.24 -0.00124757
0.25 -0.000769431
0.26 -0.000267435
0.27 0.000218516
0.28 0.000651467
0.29 0.000995504
0.3 0.00120915
0.31 0.00124404
0.32 0.00109057
0.33 0.00073051
0.34 0.000153339
0.35 -0.000672896
0.36 -0.00169949
0.37 -0.00290045
0.38 -0.00423804
0.39 -0.00566598
0.4 -0.00710439
0.41 -0.00847669
0.42 -0.00970111
0.43 -0.0106617
0.44 -0.0112495
0.45 -0.0113907
0.46 -0.0109945
0.47 -0.0099441
0.48 -0.00809953
0.49 -0.0054734
0.5 -0.00201842
0.51 0.00229976
0.52 0.00762241
0.53 0.013798
0.54 0.0207876
0.55 0.0285298
0.56 0.0370114
0.57 0.046046
0.58 0.0554788
0.59 0.065161
0.6 0.07492
0.61 0.084543
0.62 0.0938408
0.63 0.102626
0.64 0.110671
0.65 0.117704
0.66 0.123642
0.67 0.128336
0.68 0.131643
0.69 0.133221
0.7 0.13321
0.71 0.131564
0.72 0.128264
0.73 0.12312
0.74 0.116341
0.75 0.108063
0.76 0.0983954
0.77 0.0873768
0.78 0.0752162
0.79 0.0621841
0.8 0.0484746
0.81 0.0342793
0.82 0.0198274
0.83 0.00537396
0.84 -0.00888004
0.85 -0.0227392
0.86 -0.0359188
0.87 -0.0483343
0.88 -0.0598557
0.89 -0.0703772
0.9 -0.0796735
0.91 -0.0877943
0.92 -0.0947581
0.93 -0.100575
0.94 -0.105189
0.95 -0.108693
0.96 -0.111255
0.97 -0.112979
0.98 -0.113957
0.99 -0.114307
1 -0.114244
1.01 -0.113911
1.02 -0.113445
1.03 -0.113005
1.04 -0.112728
1.05 -0.112727
1.06 -0.113101
1.07 -0.114004
1.08 -0.115464
1.09 -0.117512
1.1 -0.120177
1.11 -0.123528
1.12 -0.127546
1.13 -0.132162
1.14 -0.137344
1.15 -0.143068
1.16 -0.149298
1.17 -0.155917
1.18 -0.162856
1.19 -0.17005
1.2 -0.177442
1.21 -0.184927
1.22 -0.192438
1.23 -0.199907
1.24 -0.207247
1.25 -0.214398
1.26 -0.221301
1.27 -0.227895
1.28 -0.234078
1.29 -0.239781
1.3 -0.244963
1.31 -0.24955
1.32 -0.253426
1.33 -0.256447
1.34 -0.258594
1.35 -0.25977
1.36 -0.259854
1.37 -0.258558
1.38 -0.255932
1.39 -0.251861
1.4 -0.246236
1.41 -0.238713
1.42 -0.229359
1.43 -0.218138
1.44 -0.204985
1.45 -0.189671
1.46 -0.172228
1.47 -0.152809
1.48 -0.131464
1.49 -0.108186
1.5 -0.0830347
1.51 -0.0563745
1.52 -0.0284144
1.53 0.000610252
1.54 0.0304699
1.55 0.0606969
1.56 0.0909409
1.57 0.120829
1.58 0.149817
1.59 0.177526
1.6 0.203572
1.61 0.227558
1.62 0.24883
1.63 0.267031
1.64 0.282004
1.65 0.29346
1.66 0.30094
1.67 0.304026
1.68 0.303002
1.69 0.29781
1.7 0.288392
1.71 0.274306
1.72 0.256306
1.73 0.234604
1.74 0.209472
1.75 0.180861
1.76 0.149552
1.77 0.116042
1.78 0.0807889
1.79 0.0441968
1.8 0.00689174
1.81 -0.0305555
1.82 -0.0676567
1.83 -0.103866
1.84 -0.138598
1.85 -0.171547
1.86 -0.202352
1.87 -0.230656
1.88 -0.255819
1.89 -0.278018
1.9 -0.297126
1.91 -0.313071
1.92 -0.32541
1.93 -0.334563
1.94 -0.340712
1.95 -0.344007
1.96 -0.3444
1.97 -0.342253
1.98 -0.337982
1.99 -0.331854
2 -0.324067
2.01 -0.314886
2.02 -0.304727
2.03 -0.293832
2.04 -0.282415
2.05 -0.270657
2.06 -0.258773
2.07 -0.246877
2.08 -0.23505
2.09 -0.22335
2.1 -0.211767
2.11 -0.200262
2.12 -0.188774
2.13 -0.177198
2.14 -0.165411
2.15 -0.153299
2.16 -0.140736
2.17 -0.127561
2.18 -0.113613
2.19 -0.0988591
2.2 -0.0832299
2.21 -0.0666634
2.22 -0.049039
2.23 -0.0305213
2.24 -0.0111812
2.25 0.00887289
2.26 0.0295498
2.27 0.0505673
2.28 0.0716906
2.29 0.0926683
2.3 0.113153
2.31 0.132817
2.32 0.151383
2.33 0.168547
2.34 0.183887
2.35 0.196987
2.36 0.207766
2.37 0.215992
2.38 0.221408
2.39 0.223498
2.4 0.222554
2.41 0.218528
2.42 0.211422
2.43 0.200876
2.44 0.187393
2.45 0.171196
2.46 0.152501
2.47 0.131362
2.48 0.108228
2.49 0.0835572
2.5 0.0576982
2.51 0.030989
2.52 0.00385679
2.53 -0.0232587
2.54 -0.0500013
2.55 -0.0760084
2.56 -0.100801
2.57 -0.124217
2.58 -0.146024
2.59 -0.16603
2.6 -0.183793
2.61 -0.199457
2.62 -0.213019
2.63 -0.224488
2.64 -0.233717
2.65 -0.240926
2.66 -0.246376
2.67 -0.250249
2.68 -0.252678
2.69 -0.253905
2.7 -0.254304
2.71 -0.254126
2.72 -0.253624
2.73 -0.253075
2.74 -0.252741
2.75 -0.252826
2.76 -0.253513
2.77 -0.255077
2.78 -0.257545
2.79 -0.260973
2.8 -0.265393
2.81 -0.270896
2.82 -0.27737
2.83 -0.284669
2.84 -0.292666
2.85 -0.301226
2.86 -0.310138
2.87 -0.319144
2.88 -0.328018
2.89 -0.336512
2.9 -0.34428
2.91 -0.351146
2.92 -0.356885
2.93 -0.361286
2.94 -0.363908
2.95 -0.364768
2.96 -0.363758
2.97 -0.360776
2.98 -0.355531
2.99 -0.348101
3 -0.33861
3.01 -0.327106
3.02 -0.31355
3.03 -0.298038
3.04 -0.280903
3.05 -0.262324
3.06 -0.242477
3.07 -0.221514
3.08 -0.199832
3.09 -0.177678
3.1 -0.155301
3.11 -0.13299
3.12 -0.111015
3.13 -0.0896031
3.14 -0.0689693
3.15 -0.0494346
3.16 -0.0311429
3.17 -0.0141832
3.18 0.00132993
3.19 0.0152003
3.2 0.0273287
3.21 0.0378388
3.22 0.0467409
3.23 0.0540294
3.24 0.0596306
3.25 0.0638453
3.26 0.0667912
3.27 0.0686042
3.28 0.0693139
3.29 0.0692437
3.3 0.0685789
3.31 0.0674991
3.32 0.0661797
3.33 0.0648423
3.34 0.0636677
3.35 0.0628169
3.36 0.0624827
3.37 0.0628356
3.38 0.0639426
3.39 0.0658972
3.4 0.0688036
3.41 0.0728168
3.42 0.0778399
3.43 0.0838763
3.44 0.0909087
3.45 0.0990362
3.46 0.108055
3.47 0.117876
3.48 0.128405
3.49 0.139587
3.5 0.151242
3.51 0.163211
3.52 0.175357
3.53 0.187531
3.54 0.199561
3.55 0.211309
3.56 0.222638
3.57 0.233399
3.58 0.243386
3.59 0.252568
3.6 0.260848
3.61 0.268145
3.62 0.274221
3.63 0.27917
3.64 0.282968
3.65 0.285592
3.66 0.286906
3.67 0.286998
3.68 0.28595
3.69 0.283799
3.7 0.280516
3.71 0.276158
3.72 0.270881
3.73 0.264755
3.74 0.257832
3.75 0.250136
3.76 0.241843
3.77 0.233027
3.78 0.223762
3.79 0.214072
3.8 0.204084
3.81 0.193861
3.82 0.183455
3.83 0.172903
3.84 0.16226
3.85 0.151566
3.86 0.140847
3.87 0.130127
3.88 0.119428
3.89 0.108764
3.9 0.0981446
3.91 0.0875839
3.92 0.0770999
3.93 0.0666969
3.94 0.0563885
3.95 0.0461917
3.96 0.0361512
3.97 0.026276
3.98 0.016597
3.99 0.00715022
4 -0.00198571
4.01 -0.0107759
4.02 -0.0191809
4.03 -0.0271455
4.04 -0.0345688
4.05 -0.041375
4.06 -0.0475469
4.07 -0.053026
4.08 -0.0577267
4.09 -0.0615192
4.1 -0.0644534
4.11 -0.0664917
4.12 -0.0676055
4.13 -0.0676255
4.14 -0.06669
4.15 -0.064808
4.16 -0.0619976
4.17 -0.058188
4.18 -0.0534983
4.19 -0.0480241
4.2 -0.041834
4.21 -0.034964
4.22 -0.0275188
4.23 -0.0196468
4.24 -0.0114508
4.25 -0.00303364
4.26 0.00548572
4.27 0.0139757
4.28 0.0223307
4.29 0.0304492
4.3 0.0381697
4.31 0.0454492
4.32 0.052214
4.33 0.0584011
4.34 0.0638803
4.35 0.0686602
4.36 0.0727478
4.37 0.076138
4.38 0.0787863
4.39 0.0807212
4.4 0.082037
4.41 0.0827842
4.42 0.0830061
4.43 0.0827506
4.44 0.0821556
4.45 0.0813046
4.46 0.0802841
4.47 0.0791827
4.48 0.0781101
4.49 0.0771496
4.5 0.0763799
4.51 0.0759135
4.52 0.0758022
4.53 0.0760882
4.54 0.0768148
4.55 0.0780549
4.56 0.0798319
4.57 0.0821148
4.58 0.0849002
4.59 0.0881932
4.6 0.0920002
4.61 0.0962283
4.62 0.100835
4.63 0.10577
4.64 0.111013
4.65 0.116455
4.66 0.122034
4.67 0.127686
4.68 0.133342
4.69 0.138931
4.7 0.144395
4.71 0.149678
4.72 0.154707
4.73 0.159428
4.74 0.163821
4.75 0.16785
4.76 0.17147
4.77 0.174619
4.78 0.177328
4.79 0.179582
4.8 0.181368
4.81 0.182605
4.82 0.183362
4.83 0.183635
4.84 0.183422
4.85 0.182662
4.86 0.181394
4.87 0.179635
4.88 0.177382
4.89 0.17459
4.9 0.171257
4.91 0.167419
4.92 0.163069
4.93 0.158181
4.94 0.152714
4.95 0.146726
4.96 0.140219
4.97 0.133192
4.98 0.125578
4.99 0.117468
5 0.108879
5.01 0.0998322
5.02 0.0903052
5.03 0.0803751
5.04 0.0700961
5.05 0.0595131
5.06 0.0486591
5.07 0.0376031
5.08 0.0264228
5.09 0.015181
5.1 0.0039459
5.11 -0.00719926
5.12 -0.0181904
5.13 -0.0289623
5.14 -0.0394498
5.15 -0.0495334
5.16 -0.0592049
5.17 -0.0684155
5.18 -0.0771222
5.19 -0.0852164
5.2 -0.0927166
5.21 -0.0996217
5.22 -0.10592
5.23 -0.111553
5.24 -0.116535
5.25 -0.120921
5.26 -0.124728
5.27 -0.127954
5.28 -0.130596
5.29 -0.132746
5.3 -0.134436
5.31 -0.135696
5.32 -0.136508
5.33 -0.136966
5.34 -0.137098
5.35 -0.13693
5.36 -0.136451
5.37 -0.135706
5.38 -0.134715
5.39 -0.133483
5.4 -0.131992
5.41 -0.130241
5.42 -0.128238
5.43 -0.12597
5.44 -0.12341
5.45 -0.120517
5.46 -0.117306
5.47 -0.113758
5.48 -0.109854
5.49 -0.105523
5.5 -0.100809
5.51 -0.0957063
5.52 -0.0902111
5.53 -0.0842773
5.54 -0.0779545
5.55 -0.0712706
5.56 -0.0642476
5.57 -0.056888
5.58 -0.0492386
5.59 -0.0413603
5.6 -0.0332964
5.61 -0.0250895
5.62 -0.0167931
5.63 -0.00847223
5.64 -0.000178305
5.65 0.00803661
5.66 0.0160983
5.67 0.023975
5.68 0.0316248
5.69 0.0390103
5.7 0.0460558
5.71 0.0527616
5.72 0.0591161
5.73 0.0651047
5.74 0.0706831
5.75 0.0758559
5.76 0.0806511
5.77 0.0850744
5.78 0.0891169
5.79 0.0927733
5.8 0.0960964
5.81 0.0991009
5.82 0.101798
5.83 0.104163
5.84 0.106254
5.85 0.108078
5.86 0.109642
5.87 0.110917
5.88 0.111929
5.89 0.11268
5.9 0.113165
5.91 0.113348
5.92 0.113222
5.93 0.112793
5.94 0.112048
5.95 0.110955
5.96 0.109482
5.97 0.107656
5.98 0.105471
5.99 0.10292
6 0.0999605
6.01 0.0966535
6.02 0.093015
6.03 0.089066
6.04 0.0848003
6.05 0.0802876
6.06 0.0755756
6.07 0.0707094
6.08 0.0657338
6.09 0.060715
6.1 0.0557149
6.11 0.0507899
6.12 0.0460067
6.13 0.041439
6.14 0.0371226
6.15 0.0331037
6.16 0.0294292
6.17 0.0261866
6.18 0.0233501
6.19 0.0209364
6.2 0.0189535
6.21 0.017458
6.22 0.0163887
6.23 0.0157141
6.24 0.015405
6.25 0.0154521
6.26 0.0157921
6.27 0.0163538
6.28 0.0170827
6.29 0.0179237
6.3 0.0188088
6.31 0.0196691
6.32 0.0204473
6.33 0.0210857
6.34 0.0215025
6.35 0.0216764
6.36 0.0215703
6.37 0.0211546
6.38 0.0203596
6.39 0.0192093
6.4 0.0177078
6.41 0.01586
6.42 0.0136473
6.43 0.0111058
6.44 0.00828401
6.45 0.00521487
6.46 0.00192602
6.47 -0.00154114
6.48 -0.00512285
6.49 -0.0087752
6.5 -0.0124543
6.51 -0.0161093
6.52 -0.0196992
6.53 -0.0231886
6.54 -0.0265462
6.55 -0.02972
6.56 -0.0327051
6.57 -0.0354901
6.58 -0.038065
6.59 -0.0404036
6.6 -0.0425146
6.61 -0.0444162
6.62 -0.046117
6.63 -0.0476174
6.64 -0.0489261
6.65 -0.0500763
6.66 -0.0510825
6.67 -0.0519563
6.68 -0.0526982
6.69 -0.0533357
6.7 -0.0538762
6.71 -0.0543242
6.72 -0.0546676
6.73 -0.0549142
6.74 -0.0550593
6.75 -0.0550932
6.76 -0.0549892
6.77 -0.0547344
6.78 -0.0543189
6.79 -0.0537242
6.8 -0.052918
6.81 -0.0518696
6.82 -0.0505816
6.83 -0.0490383
6.84 -0.0472202
6.85 -0.045083
6.86 -0.0426585
6.87 -0.0399449
6.88 -0.0369444
6.89 -0.0336254
6.9 -0.0300361
6.91 -0.0261981
6.92 -0.022132
6.93 -0.0178445
6.94 -0.0133777
6.95 -0.00877455
6.96 -0.00406851
6.97 0.000707204
6.98 0.00551053
6.99 0.0102992
7 0.0150372
7.01 0.0196863
7.02 0.0241937
7.03 0.0285408
7.04 0.0326984
7.05 0.0366397
7.06 0.0403028
7.07 0.0436944
7.08 0.0468007
7.09 0.0496061
7.1 0.052064
7.11 0.0541771
7.12 0.0559554
7.13 0.0573924
7.14 0.0584611
7.15 0.0591462
7.16 0.059479
7.17 0.0594581
7.18 0.0590739
7.19 0.0582872
7.2 0.0571467
7.21 0.0556534
7.22 0.0538092
7.23 0.0515668
7.24 0.0489758
7.25 0.0460466
7.26 0.042786
7.27 0.0391694
7.28 0.035226
7.29 0.0309866
7.3 0.0264671
7.31 0.0216701
7.32 0.0166147
7.33 0.0113497
7.34 0.0059028
7.35 0.000300874
7.36 -0.00543049
7.37 -0.0112367
7.38 -0.0170807
7.39 -0.022924
7.4 -0.0287156
7.41 -0.0344158
7.42 -0.0399854
7.43 -0.0453854
7.44 -0.0505514
7.45 -0.0554524
7.46 -0.0600664
7.47 -0.0643623
7.48 -0.068287
7.49 -0.0718018
7.5 -0.074919
7.51 -0.0776217
7.52 -0.0798846
7.53 -0.0816508
7.54 -0.0829723
7.55 -0.0838471
7.56 -0.0842762
7.57 -0.084199
7.58 -0.0836832
7.59 -0.0827435
7.6 -0.0813908
7.61 -0.0795959
7.62 -0.0773983
7.63 -0.0748337
7.64 -0.0719184
7.65 -0.0686477
7.66 -0.0650358
7.67 -0.0611314
7.68 -0.0569537
7.69 -0.0525159
7.7 -0.0478192
7.71 -0.0429184
7.72 -0.037837
7.73 -0.0326
7.74 -0.0272189
7.75 -0.021744
7.76 -0.0162071
7.77 -0.0106408
7.78 -0.0050841
7.79 0.000420499
7.8 0.00583531
7.81 0.0111207
7.82 0.0162208
7.83 0.0210818
7.84 0.0256782
7.85 0.0299687
7.86 0.0339009
7.87 0.0373915
7.88 0.0404505
7.89 0.0430445
7.9 0.0451435
7.91 0.0466387
7.92 0.0475809
7.93 0.0479585
7.94 0.0477606
7.95 0.0469163
7.96 0.0454625
7.97 0.0434337
7.98 0.0408409
7.99 0.0376621
8 0.0339139
8.01 0.0296696
8.02 0.0249582
8.03 0.0197983
8.04 0.0141915
8.05 0.00822824
8.06 0.00194489
8.07 -0.00462182
8.08 -0.0114678
8.09 -0.0185177
8.1 -0.0257359
8.11 -0.0330907
8.12 -0.0405607
8.13 -0.0481069
8.14 -0.0556998
8.15 -0.0633167
8.16 -0.0709355
8.17 -0.0785336
8.18 -0.0860942
8.19 -0.0936013
8.2 -0.101037
8.21 -0.108376
8.22 -0.115613
8.23 -0.122733
8.24 -0.129718
8.25 -0.136526
8.26 -0.143158
8.27 -0.149594
8.28 -0.155814
8.29 -0.161762
8.3 -0.167428
8.31 -0.172796
8.32 -0.177843
8.33 -0.182512
8.34 -0.186771
8.35 -0.190626
8.36 -0.194054
8.37 -0.197018
8.38 -0.199457
8.39 -0.201414
8.4 -0.202881
8.41 -0.20385
8.42 -0.204244
8.43 -0.204143
8.44 -0.203558
8.45 -0.202501
8.46 -0.200941
8.47 -0.198933
8.48 -0.196524
8.49 -0.193742
8.5 -0.190591
8.51 -0.187107
8.52 -0.183351
8.53 -0.179353
8.54 -0.175139
8.55 -0.170726
8.56 -0.166167
8.57 -0.161483
8.58 -0.156697
8.59 -0.151815
8.6 -0.146863
8.61 -0.141851
8.62 -0.136784
8.63 -0.131659
8.64 -0.126478
8.65 -0.121239
8.66 -0.115935
8.67 -0.110554
8.68 -0.105086
8.69 -0.0995282
8.7 -0.0938737
8.71 -0.0881124
8.72 -0.0822309
8.73 -0.076241
8.74 -0.0701444
8.75 -0.0639461
8.76 -0.0576406
8.77 -0.0512562
8.78 -0.044808
8.79 -0.0383142
8.8 -0.0317949
8.81 -0.0252783
8.82 -0.0187895
8.83 -0.0123533
8.84 -0.00600289
8.85 0.000232811
8.86 0.00633818
8.87 0.0122931
8.88 0.018073
8.89 0.0236471
8.9 0.0290269
8.91 0.0342074
8.92 0.0391875
8.93 0.0439402
8.94 0.0485062
8.95 0.0528983
8.96 0.0571325
8.97 0.0612136
8.98 0.0651785
8.99 0.0690562
9 0.0728712
9.01 0.0766473
9.02 0.0804136
9.03 0.0841949
9.04 0.088011
9.05 0.0918821
9.06 0.0958288
9.07 0.0998533
9.08 0.10396
9.09 0.10815
9.1 0.112429
9.11 0.116775
9.12 0.121174
9.13 0.125609
9.14 0.130058
9.15 0.134494
9.16 0.138891
9.17 0.143222
9.18 0.147451
9.19 0.151547
9.2 0.155491
9.21 0.159262
9.22 0.162829
9.23 0.166155
9.24 0.169251
9.25 0.172106
9.26 0.174712
9.27 0.177029
9.28 0.179096
9.29 0.180918
9.3 0.182503
9.31 0.183834
9.32 0.184945
9.33 0.185856
9.34 0.186583
9.35 0.187127
9.36 0.187505
9.37 0.187742
9.38 0.18785
9.39 0.187832
9.4 0.187689
9.41 0.187438
9.42 0.18708
9.43 0.186614
9.44 0.18602
9.45 0.18531
9.46 0.184475
9.47 0.183509
9.48 0.182384
9.49 0.181102
9.5 0.17966
9.51 0.178051
9.52 0.176255
9.53 0.174267
9.54 0.172102
9.55 0.169761
9.56 0.16724
9.57 0.164539
9.58 0.161688
9.59 0.158702
9.6 0.155595
9.61 0.152378
9.62 0.149087
9.63 0.145746
9.64 0.14238
9.65 0.139013
9.66 0.135675
9.67 0.132387
9.68 0.129172
9.69 0.126057
9.7 0.123063
9.71 0.120196
9.72 0.117468
9.73 0.114896
9.74 0.112496
9.75 0.110253
9.76 0.108168
9.77 0.10624
9.78 0.104486
9.79 0.102878
9.8 0.101407
9.81 0.100069
9.82 0.0988708
9.83 0.0977943
9.84 0.0968307
9.85 0.0959766
9.86 0.0952402
9.87 0.0946201
9.88 0.0941118
9.89 0.0937201
9.9 0.0934585
9.91 0.0933455
9.92 0.0933776
9.93 0.0935662
9.94 0.0939247
9.95 0.0944924
9.96 0.0952542
9.97 0.0962202
9.98 0.0973981
9.99 0.0988226
10 0.100475
10.01 0.102347
10.02 0.104433
10.03 0.106744
10.04 0.109259
10.05 0.111946
10.06 0.114783
10.07 0.117751
10.08 0.120821
10.09 0.123948
10.1 0.127098
10.11 0.130235
10.12 0.133307
10.13 0.136282
10.14 0.139122
10.15 0.14179
10.16 0.144222
10.17 0.146401
10.18 0.148305
10.19 0.149907
10.2 0.151154
10.21 0.152032
10.22 0.152548
10.23 0.152692
10.24 0.152437
10.25 0.151759
10.26 0.1507
10.27 0.149262
10.28 0.147447
10.29 0.145215
10.3 0.14263
10.31 0.139703
10.32 0.136445
10.33 0.132826
10.34 0.128894
10.35 0.124668
10.36 0.120159
10.37 0.115352
10.38 0.110267
10.39 0.104929
10.4 0.0993481
10.41 0.0935191
10.42 0.0874404
10.43 0.0811453
10.44 0.074643
10.45 0.067941
10.46 0.0610282
10.47 0.0539458
10.48 0.0467085
10.49 0.0393327
10.5 0.0318228
10.51 0.0242151
10.52 0.0165346
10.53 0.00880467
10.54 0.00105011
10.55 -0.00669791
10.56 -0.014412
10.57 -0.0220661
10.58 -0.0296283
10.59 -0.0370641
10.6 -0.0443603
10.61 -0.0514961
10.62 -0.0584499
10.63 -0.0651785
10.64 -0.0716967
10.65 -0.0779956
10.66 -0.0840699
10.67 -0.0898863
10.68 -0.0954721
10.69 -0.100837
10.7 -0.105989
10.71 -0.110918
10.72 -0.115645
10.73 -0.120194
10.74 -0.124579
10.75 -0.128805
10.76 -0.132879
10.77 -0.136828
10.78 -0.140659
10.79 -0.144378
10.8 -0.147975
10.81 -0.151466
10.82 -0.154847
10.83 -0.158113
10.84 -0.161235
10.85 -0.164216
10.86 -0.167041
10.87 -0.169696
10.88 -0.172141
10.89 -0.174362
10.9 -0.176351
10.91 -0.178091
10.92 -0.179549
10.93 -0.180695
10.94 -0.181546
10.95 -0.182094
10.96 -0.18233
10.97 -0.182216
10.98 -0.181803
10.99 -0.181098
11 -0.180118
11.01 -0.178847
11.02 -0.177342
11.03 -0.175635
11.04 -0.173754
11.05 -0.17172
11.06 -0.169578
11.07 -0.167369
11.08 -0.165125
11.09 -0.162881
11.1 -0.160672
11.11 -0.158526
11.12 -0.156466
11.13 -0.154514
11.14 -0.152703
11.15 -0.151028
11.16 -0.149495
11.17 -0.148106
11.18 -0.146879
11.19 -0.145788
11.2 -0.14482
11.21 -0.143963
11.22 -0.143209
11.23 -0.142535
11.24 -0.141919
11.25 -0.141342
11.26 -0.14079
11.27 -0.140246
11.28 -0.139694
11.29 -0.139127
11.3 -0.138537
11.31 -0.137918
11.32 -0.137274
11.33 -0.136611
11.34 -0.135936
11.35 -0.135262
11.36 -0.134605
11.37 -0.133982
11.38 -0.133409
11.39 -0.132915
11.4 -0.132517
11.41 -0.13223
11.42 -0.132069
11.43 -0.132058
11.44 -0.132216
11.45 -0.132537
11.46 -0.133024
11.47 -0.133682
11.48 -0.134523
11.49 -0.135516
11.5 -0.136647
11.51 -0.137902
11.52 -0.139271
11.53 -0.140715
11.54 -0.142208
11.55 -0.143724
11.56 -0.145231
11.57 -0.146697
11.58 -0.148097
11.59 -0.149406
11.6 -0.150593
11.61 -0.151629
11.62 -0.15251
11.63 -0.153223
11.64 -0.153756
11.65 -0.154082
11.66 -0.154226
11.67 -0.154191
11.68 -0.153985
11.69 -0.153596
11.7 -0.153059
11.71 -0.152392
11.72 -0.151611
11.73 -0.150725
11.74 -0.149759
11.75 -0.148733
11.76 -0.147663
11.77 -0.146561
11.78 -0.145438
11.79 -0.144304
11.8 -0.143165
11.81 -0.14202
11.82 -0.140869
11.83 -0.139706
11.84 -0.138522
11.85 -0.137308
11.86 -0.136044
11.87 -0.134719
11.88 -0.133318
11.89 -0.131827
11.9 -0.130217
11.91 -0.128478
11.92 -0.126602
11.93 -0.124578
11.94 -0.122389
11.95 -0.120021
11.96 -0.117488
11.97 -0.11479
11.98 -0.111926
11.99 -0.108887
12 -0.105706
12.01 -0.102393
12.02 -0.0989622
12.03 -0.0954176
12.04 -0.0917919
12.05 -0.0881038
12.06 -0.0843711
12.07 -0.08061
12.08 -0.0768412
12.09 -0.0730807
12.1 -0.0693417
12.11 -0.0656382
