[DEFAULT]

version = diffpy.pdfgetx-2.2.1

# input and output specifications
dataformat = twotheta
inputfile = Synthetic_CSH_CSH_pdf_ramp_300_04_normalized.chi
backgroundfiles = quartz_030degC_normalized.chi
outputtype = gr

# PDF calculation setup
mode = xray
wavelength = 0.2113
twothetazero = 0
composition = CaO SiO2
bgscales = 1.0
rpoly = 0.9
qmaxinst = 23.7031
qmin = 0.5
qmax = 20
rmin = 0
rmax = 60
rstep = 0.01

# End of config --------------------------------------------------------------

#### start data
#S 1
#L r(Å)  G(Å$^{-2}$)
0 0
0.01 -0.00271339
0.02 -0.00533239
0.03 -0.00777676
0.04 -0.00997103
0.05 -0.0118007
0.06 -0.0132244
0.07 -0.0142099
0.08 -0.0147237
0.09 -0.0147056
0.1 -0.014152
0.11 -0.0131156
0.12 -0.0116238
0.13 -0.00970329
0.14 -0.00739196
0.15 -0.00480715
0.16 -0.00202761
0.17 0.0008605
0.18 0.00375322
0.19 0.00654242
0.2 0.00913394
0.21 0.0114368
0.22 0.0133106
0.23 0.0147002
0.24 0.0155588
0.25 0.0158385
0.26 0.0154549
0.27 0.0143962
0.28 0.0127195
0.29 0.0104529
0.3 0.00762342
0.31 0.00427596
0.32 0.00056161
0.33 -0.00341545
0.34 -0.00753773
0.35 -0.0116574
0.36 -0.0156186
0.37 -0.0192791
0.38 -0.0224968
0.39 -0.0250443
0.4 -0.0268224
0.41 -0.0277365
0.42 -0.0276854
0.43 -0.0264921
0.44 -0.0240945
0.45 -0.0205432
0.46 -0.0158328
0.47 -0.00993607
0.48 -0.00283605
0.49 0.00525345
0.5 0.014225
0.51 0.023951
0.52 0.0343443
0.53 0.0451203
0.54 0.0560933
0.55 0.0670687
0.56 0.0777977
0.57 0.0880699
0.58 0.0977019
0.59 0.106513
0.6 0.114238
0.61 0.120715
0.62 0.125901
0.63 0.129703
0.64 0.131986
0.65 0.132605
0.66 0.131729
0.67 0.129384
0.68 0.125616
0.69 0.12032
0.7 0.113819
0.71 0.106237
0.72 0.0977102
0.73 0.0883048
0.74 0.0782703
0.75 0.0677847
0.76 0.0569952
0.77 0.046038
0.78 0.0350637
0.79 0.0241878
0.8 0.0134974
0.81 0.00307444
0.82 -0.00700999
0.83 -0.0167669
0.84 -0.0261966
0.85 -0.0353148
0.86 -0.0441224
0.87 -0.0527148
0.88 -0.061149
0.89 -0.0694857
0.9 -0.0777886
0.91 -0.0861246
0.92 -0.0945397
0.93 -0.103066
0.94 -0.111733
0.95 -0.120532
0.96 -0.129426
0.97 -0.138367
0.98 -0.14728
0.99 -0.156052
1 -0.164577
1.01 -0.172731
1.02 -0.180377
1.03 -0.187262
1.04 -0.193334
1.05 -0.198462
1.06 -0.202533
1.07 -0.205286
1.08 -0.206757
1.09 -0.206945
1.1 -0.205845
1.11 -0.203379
1.12 -0.19966
1.13 -0.194892
1.14 -0.189228
1.15 -0.182829
1.16 -0.175926
1.17 -0.168842
1.18 -0.16184
1.19 -0.155201
1.2 -0.149336
1.21 -0.144444
1.22 -0.140773
1.23 -0.138543
1.24 -0.138171
1.25 -0.139643
1.26 -0.142985
1.27 -0.148212
1.28 -0.155441
1.29 -0.164487
1.3 -0.17503
1.31 -0.186816
1.32 -0.199561
1.33 -0.212851
1.34 -0.226171
1.35 -0.239062
1.36 -0.251025
1.37 -0.261298
1.38 -0.269548
1.39 -0.275309
1.4 -0.278147
1.41 -0.277187
1.42 -0.272416
1.43 -0.26369
1.44 -0.250853
1.45 -0.233452
1.46 -0.211649
1.47 -0.185884
1.48 -0.156412
1.49 -0.123432
1.5 -0.0873294
1.51 -0.0490039
1.52 -0.0090764
1.53 0.0317769
1.54 0.0727367
1.55 0.112939
1.56 0.151624
1.57 0.18804
1.58 0.220971
1.59 0.249981
1.6 0.274559
1.61 0.294192
1.62 0.307918
1.63 0.315538
1.64 0.317239
1.65 0.312966
1.66 0.302466
1.67 0.285687
1.68 0.263576
1.69 0.236561
1.7 0.205107
1.71 0.169436
1.72 0.130845
1.73 0.0900627
1.74 0.0478423
1.75 0.0049592
1.76 -0.0376571
1.77 -0.0792791
1.78 -0.119241
1.79 -0.156666
1.8 -0.19102
1.81 -0.222044
1.82 -0.249423
1.83 -0.272717
1.84 -0.291627
1.85 -0.306582
1.86 -0.317702
1.87 -0.325142
1.88 -0.328831
1.89 -0.329657
1.9 -0.328049
1.91 -0.324472
1.92 -0.319275
1.93 -0.313182
1.94 -0.306695
1.95 -0.300253
1.96 -0.294327
1.97 -0.289286
1.98 -0.285342
1.99 -0.282664
2 -0.281416
2.01 -0.281644
2.02 -0.283098
2.03 -0.285592
2.04 -0.288871
2.05 -0.292605
2.06 -0.296298
2.07 -0.299521
2.08 -0.301821
2.09 -0.302478
2.1 -0.301143
2.11 -0.297422
2.12 -0.290932
2.13 -0.281008
2.14 -0.267469
2.15 -0.250343
2.16 -0.229551
2.17 -0.204889
2.18 -0.176348
2.19 -0.144515
2.2 -0.109698
2.21 -0.0722432
2.22 -0.0324419
2.23 0.00881483
2.24 0.0509391
2.25 0.0933101
2.26 0.135141
2.27 0.175749
2.28 0.214519
2.29 0.250855
2.3 0.283849
2.31 0.313052
2.32 0.338242
2.33 0.359091
2.34 0.375063
2.35 0.38581
2.36 0.391756
2.37 0.392955
2.38 0.389453
2.39 0.381007
2.4 0.368565
2.41 0.352507
2.42 0.333259
2.43 0.310976
2.44 0.28656
2.45 0.260571
2.46 0.233519
2.47 0.205896
2.48 0.178277
2.49 0.151117
2.5 0.124797
2.51 0.0997397
2.52 0.0763117
2.53 0.0545868
2.54 0.0346994
2.55 0.0167689
2.56 0.00102776
2.57 -0.0128405
2.58 -0.0249336
2.59 -0.0353881
2.6 -0.0441894
2.61 -0.0517458
2.62 -0.0582927
2.63 -0.0640462
2.64 -0.0691817
2.65 -0.073963
2.66 -0.0786005
2.67 -0.0832513
2.68 -0.088061
2.69 -0.0931499
2.7 -0.098558
2.71 -0.104309
2.72 -0.110404
2.73 -0.11683
2.74 -0.12347
2.75 -0.130235
2.76 -0.137017
2.77 -0.143665
2.78 -0.150052
2.79 -0.156055
2.8 -0.161556
2.81 -0.166373
2.82 -0.170429
2.83 -0.173689
2.84 -0.176103
2.85 -0.177587
2.86 -0.178113
2.87 -0.17779
2.88 -0.176662
2.89 -0.174777
2.9 -0.172158
2.91 -0.168998
2.92 -0.1654
2.93 -0.161472
2.94 -0.157303
2.95 -0.15304
2.96 -0.148778
2.97 -0.1446
2.98 -0.140595
2.99 -0.136814
3 -0.133277
3.01 -0.129997
3.02 -0.126983
3.03 -0.124213
3.04 -0.121622
3.05 -0.119158
3.06 -0.116757
3.07 -0.114338
3.08 -0.111822
3.09 -0.109138
3.1 -0.106217
3.11 -0.102948
3.12 -0.099316
3.13 -0.0952876
3.14 -0.0908404
3.15 -0.0859199
3.16 -0.0805598
3.17 -0.0748063
3.18 -0.0686955
3.19 -0.0622573
3.2 -0.0555538
3.21 -0.0486756
3.22 -0.0416879
3.23 -0.0346563
3.24 -0.0276528
3.25 -0.0207325
3.26 -0.0139369
3.27 -0.00729479
3.28 -0.000846332
3.29 0.00543656
3.3 0.0115778
3.31 0.0176153
3.32 0.0236042
3.33 0.0296283
3.34 0.0357714
3.35 0.0421234
3.36 0.0488077
3.37 0.0559475
3.38 0.0636062
3.39 0.0718693
3.4 0.0808341
3.41 0.0906418
3.42 0.101238
3.43 0.112639
3.44 0.124837
3.45 0.137906
3.46 0.151669
3.47 0.166028
3.48 0.18087
3.49 0.196081
3.5 0.211455
3.51 0.226801
3.52 0.241932
3.53 0.256611
3.54 0.270591
3.55 0.28372
3.56 0.295814
3.57 0.306655
3.58 0.315934
3.59 0.323684
3.6 0.329801
3.61 0.33421
3.62 0.336592
3.63 0.337188
3.64 0.336035
3.65 0.333183
3.66 0.328537
3.67 0.32233
3.68 0.314769
3.69 0.306003
3.7 0.296133
3.71 0.285354
3.72 0.273932
3.73 0.262046
3.74 0.249865
3.75 0.237569
3.76 0.22534
3.77 0.213309
3.78 0.201593
3.79 0.19036
3.8 0.17963
3.81 0.169447
3.82 0.159838
3.83 0.150875
3.84 0.142504
3.85 0.134668
3.86 0.127326
3.87 0.120453
3.88 0.113987
3.89 0.107828
3.9 0.10192
3.91 0.0962104
3.92 0.0906584
3.93 0.0852047
3.94 0.0798241
3.95 0.0745034
3.96 0.0692538
3.97 0.0640836
3.98 0.0590221
3.99 0.0541098
4 0.0494275
4.01 0.0450303
4.02 0.0409748
4.03 0.0373298
4.04 0.0342059
4.05 0.0316866
4.06 0.02979
4.07 0.028568
4.08 0.0280904
4.09 0.0284559
4.1 0.0295882
4.11 0.0314872
4.12 0.0341383
4.13 0.0376204
4.14 0.0417716
4.15 0.0465315
4.16 0.0518308
4.17 0.0576354
4.18 0.0638104
4.19 0.0702454
4.2 0.0768471
4.21 0.0835202
4.22 0.090156
4.23 0.096665
4.24 0.102969
4.25 0.108985
4.26 0.114614
4.27 0.119844
4.28 0.124637
4.29 0.128967
4.3 0.132738
4.31 0.13602
4.32 0.138815
4.33 0.141134
4.34 0.14294
4.35 0.14429
4.36 0.145224
4.37 0.145766
4.38 0.145908
4.39 0.145673
4.4 0.145103
4.41 0.144211
4.42 0.142988
4.43 0.141411
4.44 0.139513
4.45 0.137285
4.46 0.134715
4.47 0.131731
4.48 0.128371
4.49 0.124621
4.5 0.120467
4.51 0.115849
4.52 0.110793
4.53 0.105316
4.54 0.0994263
4.55 0.0931063
4.56 0.0863836
4.57 0.0793206
4.58 0.0719548
4.59 0.0643222
4.6 0.056466
4.61 0.0484713
4.62 0.0403963
4.63 0.0323006
4.64 0.0242587
4.65 0.0163276
4.66 0.00855957
4.67 0.00100114
4.68 -0.00627344
4.69 -0.0132507
4.7 -0.0199211
4.71 -0.0262753
4.72 -0.0322886
4.73 -0.0379776
4.74 -0.0433903
4.75 -0.0485589
4.76 -0.0535166
4.77 -0.058307
4.78 -0.0630047
4.79 -0.0676643
4.8 -0.0723407
4.81 -0.0771066
4.82 -0.0820059
4.83 -0.0870823
4.84 -0.0923721
4.85 -0.0979361
4.86 -0.103773
4.87 -0.109878
4.88 -0.116247
4.89 -0.122882
4.9 -0.129747
4.91 -0.136785
4.92 -0.14395
4.93 -0.151186
4.94 -0.158425
4.95 -0.165594
4.96 -0.17263
4.97 -0.179466
4.98 -0.18599
4.99 -0.19218
5 -0.197984
5.01 -0.203359
5.02 -0.208209
5.03 -0.212546
5.04 -0.216375
5.05 -0.219691
5.06 -0.222456
5.07 -0.224693
5.08 -0.226465
5.09 -0.227799
5.1 -0.228713
5.11 -0.229226
5.12 -0.229419
5.13 -0.229332
5.14 -0.228996
5.15 -0.228416
5.16 -0.227652
5.17 -0.226721
5.18 -0.225634
5.19 -0.224374
5.2 -0.222947
5.21 -0.221343
5.22 -0.219543
5.23 -0.217496
5.24 -0.215167
5.25 -0.212536
5.26 -0.209569
5.27 -0.206208
5.28 -0.202388
5.29 -0.198124
5.3 -0.193394
5.31 -0.188179
5.32 -0.182403
5.33 -0.176146
5.34 -0.169427
5.35 -0.162271
5.36 -0.154673
5.37 -0.146727
5.38 -0.138506
5.39 -0.130078
5.4 -0.12151
5.41 -0.1129
5.42 -0.104337
5.43 -0.0959006
5.44 -0.0876856
5.45 -0.0797971
5.46 -0.0722771
5.47 -0.0651846
5.48 -0.058574
5.49 -0.0525622
5.5 -0.0470989
5.51 -0.0421957
5.52 -0.0378522
5.53 -0.0341245
5.54 -0.0309288
5.55 -0.0282119
5.56 -0.0259289
5.57 -0.0240566
5.58 -0.0225183
5.59 -0.0212268
5.6 -0.02012
5.61 -0.0191401
5.62 -0.018223
5.63 -0.0173052
5.64 -0.0163419
5.65 -0.0152946
5.66 -0.0141162
5.67 -0.0128046
5.68 -0.0113535
5.69 -0.00976565
5.7 -0.00803953
5.71 -0.00621283
5.72 -0.00431872
5.73 -0.00239233
5.74 -0.000477577
5.75 0.00137565
5.76 0.00312578
5.77 0.00473147
5.78 0.00614263
5.79 0.00730719
5.8 0.00821899
5.81 0.00885785
5.82 0.00920734
5.83 0.00922366
5.84 0.00895517
5.85 0.00841535
5.86 0.00762485
5.87 0.00658556
5.88 0.00535963
5.89 0.00399133
5.9 0.00252165
5.91 0.000991557
5.92 -0.000547353
5.93 -0.00205164
5.94 -0.00348434
5.95 -0.00480542
5.96 -0.00597596
5.97 -0.00698799
5.98 -0.00782794
5.99 -0.0084861
6 -0.00893856
6.01 -0.00921858
6.02 -0.00933796
6.03 -0.00931256
6.04 -0.0091471
6.05 -0.00887897
6.06 -0.00853227
6.07 -0.00812662
6.08 -0.00767652
6.09 -0.00719801
6.1 -0.00670024
6.11 -0.00618389
6.12 -0.00564099
6.13 -0.00505316
6.14 -0.004401
6.15 -0.00365573
6.16 -0.00277983
6.17 -0.00170408
6.18 -0.000402849
6.19 0.00117178
6.2 0.00306872
6.21 0.00539305
6.22 0.00815501
6.23 0.0113859
6.24 0.0151201
6.25 0.0194375
6.26 0.0243404
6.27 0.0297997
6.28 0.0358093
6.29 0.0423808
6.3 0.0495019
6.31 0.0570747
6.32 0.0650458
6.33 0.0733566
6.34 0.0819566
6.35 0.0907203
6.36 0.0995636
6.37 0.1084
6.38 0.117115
6.39 0.125624
6.4 0.133845
6.41 0.141703
6.42 0.149078
6.43 0.155916
6.44 0.162195
6.45 0.167878
6.46 0.172901
6.47 0.177219
6.48 0.180895
6.49 0.183939
6.5 0.186359
6.51 0.188115
6.52 0.18933
6.53 0.190044
6.54 0.190303
6.55 0.190103
6.56 0.189544
6.57 0.18868
6.58 0.18755
6.59 0.186172
6.6 0.18459
6.61 0.182839
6.62 0.180933
6.63 0.178873
6.64 0.176651
6.65 0.174274
6.66 0.171729
6.67 0.168994
6.68 0.166019
6.69 0.162806
6.7 0.159332
6.71 0.155573
6.72 0.151465
6.73 0.147026
6.74 0.142256
6.75 0.13715
6.76 0.131683
6.77 0.125886
6.78 0.119802
6.79 0.113464
6.8 0.106903
6.81 0.10017
6.82 0.0933427
6.83 0.0864814
6.84 0.0796534
6.85 0.0729489
6.86 0.066429
6.87 0.06016
6.88 0.0542054
6.89 0.0486853
6.9 0.0436122
6.91 0.0390232
6.92 0.0349541
6.93 0.0314894
6.94 0.0286233
6.95 0.0263283
6.96 0.0245995
6.97 0.0234559
6.98 0.0228872
6.99 0.0228071
7 0.0231765
7.01 0.0239589
7.02 0.0251379
7.03 0.026608
7.04 0.0283164
7.05 0.030211
7.06 0.0322534
7.07 0.0343728
7.08 0.0365237
7.09 0.0386671
7.1 0.0407617
7.11 0.0427765
7.12 0.0446925
7.13 0.0464928
7.14 0.0481567
7.15 0.049671
7.16 0.0510451
7.17 0.0522782
7.18 0.0533679
7.19 0.0543014
7.2 0.0550995
7.21 0.0557635
7.22 0.0562929
7.23 0.056665
7.24 0.0568917
7.25 0.0569668
7.26 0.0568796
7.27 0.0565967
7.28 0.0561084
7.29 0.0554071
7.3 0.0544743
7.31 0.053274
7.32 0.0517774
7.33 0.0499928
7.34 0.0479074
7.35 0.0455033
7.36 0.0427408
7.37 0.0396628
7.38 0.0362759
7.39 0.0325921
7.4 0.0285916
7.41 0.0243397
7.42 0.0198709
7.43 0.0152207
7.44 0.0104186
7.45 0.00552355
7.46 0.000588998
7.47 -0.00433763
7.48 -0.00920174
7.49 -0.0139455
7.5 -0.0185318
7.51 -0.0229209
7.52 -0.0270701
7.53 -0.0309176
7.54 -0.0344733
7.55 -0.0377219
7.56 -0.0406544
7.57 -0.0432225
7.58 -0.0454763
7.59 -0.0474326
7.6 -0.0491098
7.61 -0.0505065
7.62 -0.0516702
7.63 -0.0526448
7.64 -0.053463
7.65 -0.0541523
7.66 -0.0547497
7.67 -0.0552964
7.68 -0.0558206
7.69 -0.0563476
7.7 -0.056903
7.71 -0.0575
7.72 -0.0581482
7.73 -0.058852
7.74 -0.0596185
7.75 -0.0604333
7.76 -0.0612853
7.77 -0.0621607
7.78 -0.0630417
7.79 -0.0639062
7.8 -0.0647348
7.81 -0.0655083
7.82 -0.0662022
7.83 -0.0667959
7.84 -0.0672838
7.85 -0.0676568
7.86 -0.0679058
7.87 -0.0680184
7.88 -0.0680147
7.89 -0.0679038
7.9 -0.0676983
7.91 -0.0674058
7.92 -0.06706
7.93 -0.0666842
7.94 -0.0663026
7.95 -0.0659449
7.96 -0.0656386
7.97 -0.0654058
7.98 -0.0652677
7.99 -0.0652523
8 -0.0653795
8.01 -0.065649
8.02 -0.0660669
8.03 -0.0666396
8.04 -0.0673776
8.05 -0.0682533
8.06 -0.0692547
8.07 -0.0703667
8.08 -0.0715823
8.09 -0.0728651
8.1 -0.0741928
8.11 -0.0755434
8.12 -0.076893
8.13 -0.0782182
8.14 -0.0795013
8.15 -0.0807271
8.16 -0.081878
8.17 -0.082943
8.18 -0.0839245
8.19 -0.0848222
8.2 -0.0856366
8.21 -0.0863687
8.22 -0.087038
8.23 -0.087656
8.24 -0.0882353
8.25 -0.088787
8.26 -0.0893289
8.27 -0.0898721
8.28 -0.0904257
8.29 -0.0909979
8.3 -0.0915899
8.31 -0.0921984
8.32 -0.0928166
8.33 -0.0934318
8.34 -0.0940245
8.35 -0.0945738
8.36 -0.095055
8.37 -0.0954358
8.38 -0.0956692
8.39 -0.0957361
8.4 -0.0956042
8.41 -0.0952421
8.42 -0.0945753
8.43 -0.0936137
8.44 -0.0923366
8.45 -0.090727
8.46 -0.0887329
8.47 -0.0863743
8.48 -0.0836703
8.49 -0.0806313
8.5 -0.0772523
8.51 -0.0735616
8.52 -0.0696178
8.53 -0.0654588
8.54 -0.0611228
8.55 -0.0566541
8.56 -0.0521224
8.57 -0.047579
8.58 -0.043075
8.59 -0.0386825
8.6 -0.0344406
8.61 -0.0303925
8.62 -0.0265771
8.63 -0.0230633
8.64 -0.0198617
8.65 -0.0169801
8.66 -0.0144312
8.67 -0.0122474
8.68 -0.0104281
8.69 -0.00893663
8.7 -0.00775894
8.71 -0.00688647
8.72 -0.00631432
8.73 -0.00598046
8.74 -0.00585632
8.75 -0.00591254
8.76 -0.00613927
8.77 -0.00648147
8.78 -0.00691315
8.79 -0.00741118
8.8 -0.00795902
8.81 -0.00853482
8.82 -0.00912542
8.83 -0.00972312
8.84 -0.010324
8.85 -0.0109277
8.86 -0.0115369
8.87 -0.0121565
8.88 -0.0127939
8.89 -0.0134593
8.9 -0.0141573
8.91 -0.0148938
8.92 -0.0156729
8.93 -0.0165035
8.94 -0.0173767
8.95 -0.0182872
8.96 -0.0192263
8.97 -0.0201822
8.98 -0.0211346
8.99 -0.0220633
9 -0.0229462
9.01 -0.0237513
9.02 -0.0244478
9.03 -0.0250157
9.04 -0.0254297
9.05 -0.0256575
9.06 -0.0256587
9.07 -0.0254378
9.08 -0.0249818
9.09 -0.0242815
9.1 -0.0232955
9.11 -0.0220665
9.12 -0.0206042
9.13 -0.018924
9.14 -0.0170252
9.15 -0.0149552
9.16 -0.0127521
9.17 -0.0104504
9.18 -0.00808513
9.19 -0.00570273
9.2 -0.00334601
9.21 -0.00105259
9.22 0.00113613
9.23 0.00317248
9.24 0.00504185
9.25 0.00672197
9.26 0.00819532
9.27 0.00941713
9.28 0.010418
9.29 0.0112019
9.3 0.011779
9.31 0.0121443
9.32 0.01234
9.33 0.0124004
9.34 0.0123561
9.35 0.0122377
9.36 0.0120879
9.37 0.011947
9.38 0.0118497
9.39 0.0118336
9.4 0.0119411
9.41 0.0121878
9.42 0.0125943
9.43 0.0131774
9.44 0.0139765
9.45 0.0149672
9.46 0.0161477
9.47 0.0175113
9.48 0.0190661
9.49 0.0207784
9.5 0.0226226
9.51 0.0245774
9.52 0.0266252
9.53 0.0287372
9.54 0.0308849
9.55 0.0330478
9.56 0.0352068
9.57 0.0373433
9.58 0.0394483
9.59 0.0415156
9.6 0.0435435
9.61 0.0455302
9.62 0.0474899
9.63 0.0494343
9.64 0.0513783
9.65 0.0533437
9.66 0.0553511
9.67 0.0574194
9.68 0.0595683
9.69 0.0618256
9.7 0.0642084
9.71 0.0667205
9.72 0.0693693
9.73 0.0721638
9.74 0.0751087
9.75 0.0781782
9.76 0.0813565
9.77 0.0846227
9.78 0.0879536
9.79 0.091304
9.8 0.0946366
9.81 0.0979112
9.82 0.101067
9.83 0.104062
9.84 0.106857
9.85 0.109409
9.86 0.111648
9.87 0.113536
9.88 0.115063
9.89 0.116202
9.9 0.116914
9.91 0.117155
9.92 0.116969
9.93 0.116356
9.94 0.115323
9.95 0.113831
9.96 0.111967
9.97 0.109757
9.98 0.107236
9.99 0.104409
10 0.101347
10.01 0.0980998
10.02 0.0947075
10.03 0.0912041
10.04 0.0876364
10.05 0.0840453
10.06 0.0804615
10.07 0.0769144
10.08 0.0734323
10.09 0.0700263
10.1 0.0667066
10.11 0.0634798
10.12 0.0603589
10.13 0.0573253
10.14 0.0543705
10.15 0.0514832
10.16 0.0486545
10.17 0.0458611
10.18 0.0430851
10.19 0.0403103
10.2 0.0375185
10.21 0.0346935
10.22 0.0318252
10.23 0.0289045
10.24 0.0259221
10.25 0.0228713
10.26 0.0197596
10.27 0.0165908
10.28 0.0133711
10.29 0.0101058
10.3 0.00681399
10.31 0.00350915
10.32 0.000205726
10.33 -0.00307697
10.34 -0.00632346
10.35 -0.00951982
10.36 -0.0126526
10.37 -0.0157015
10.38 -0.0186566
10.39 -0.0215152
10.4 -0.0242712
10.41 -0.0269149
10.42 -0.0294387
10.43 -0.0318544
10.44 -0.0341637
10.45 -0.0363682
10.46 -0.0384593
10.47 -0.0404564
10.48 -0.0423637
10.49 -0.0441851
10.5 -0.0459129
10.51 -0.0475584
10.52 -0.0491241
10.53 -0.0506091
10.54 -0.0520029
10.55 -0.0533032
10.56 -0.05451
10.57 -0.0556169
10.58 -0.0566103
10.59 -0.0574756
10.6 -0.0582166
10.61 -0.0588265
10.62 -0.059297
10.63 -0.0596048
10.64 -0.0597675
10.65 -0.0597851
10.66 -0.0596599
10.67 -0.0593788
10.68 -0.0589663
10.69 -0.0584364
10.7 -0.0578024
10.71 -0.0570725
10.72 -0.0562702
10.73 -0.0554197
10.74 -0.0545403
10.75 -0.0536523
10.76 -0.0527787
10.77 -0.0519375
10.78 -0.0511446
10.79 -0.0504147
10.8 -0.0497693
10.81 -0.0492054
10.82 -0.0487263
10.83 -0.0483314
10.84 -0.0480265
10.85 -0.0477931
10.86 -0.0476174
10.87 -0.0474846
10.88 -0.0473785
10.89 -0.0472755
10.9 -0.0471543
10.91 -0.0469946
10.92 -0.0467723
10.93 -0.0464625
10.94 -0.0460563
10.95 -0.0455411
10.96 -0.0449052
10.97 -0.0441281
10.98 -0.0432271
10.99 -0.0422069
11 -0.0410766
11.01 -0.0398387
11.02 -0.0385253
11.03 -0.0371602
11.04 -0.0357684
11.05 -0.0343797
11.06 -0.0330276
11.07 -0.0317405
11.08 -0.0305462
11.09 -0.02948
11.1 -0.0285756
11.11 -0.02784
11.12 -0.0272886
11.13 -0.0269362
11.14 -0.0268124
11.15 -0.0268881
11.16 -0.0271561
11.17 -0.0276038
11.18 -0.0282333
11.19 -0.0289984
11.2 -0.0298683
11.21 -0.030812
11.22 -0.0317967
11.23 -0.0327794
11.24 -0.0337231
11.25 -0.0345933
11.26 -0.035349
11.27 -0.0359502
11.28 -0.036383
11.29 -0.036627
11.3 -0.0366619
11.31 -0.0364517
11.32 -0.0360229
11.33 -0.0353786
11.34 -0.0345276
11.35 -0.0334591
11.36 -0.0322196
11.37 -0.0308367
11.38 -0.0293379
11.39 -0.0277474
11.4 -0.0261061
11.41 -0.0244506
11.42 -0.0228117
11.43 -0.0212238
11.44 -0.0197211
11.45 -0.0183212
11.46 -0.0170431
11.47 -0.0159047
11.48 -0.0149333
11.49 -0.0141134
11.5 -0.013444
11.51 -0.0129194
11.52 -0.0125478
11.53 -0.0122963
11.54 -0.0121459
11.55 -0.0120779
11.56 -0.0120768
11.57 -0.0121156
11.58 -0.0121718
11.59 -0.0122272
11.6 -0.0122642
11.61 -0.0122668
11.62 -0.0122284
11.63 -0.0121443
11.64 -0.0120124
11.65 -0.0118322
11.66 -0.0116183
11.67 -0.0113823
11.68 -0.011139
11.69 -0.0109097
11.7 -0.0107151
11.71 -0.0105754
11.72 -0.0105112
11.73 -0.0105544
11.74 -0.0107213
11.75 -0.0110217
11.76 -0.0114678
11.77 -0.0120787
11.78 -0.0128631
11.79 -0.013805
11.8 -0.0148982
11.81 -0.0161353
11.82 -0.0175114
11.83 -0.0189874
11.84 -0.0205395
11.85 -0.0221407
11.86 -0.0237604
11.87 -0.0253613
11.88 -0.0269118
11.89 -0.0283811
11.9 -0.0297249
11.91 -0.0309174
