[DEFAULT]

version = diffpy.pdfgetx-2.2.1

# input and output specifications
dataformat = twotheta
inputfile = Synthetic_CSH_CSH_pdf_ramp_1000_03_normalized.chi
backgroundfiles = quartz_030degC_normalized.chi
outputtype = gr

# PDF calculation setup
mode = xray
wavelength = 0.2113
twothetazero = 0
composition = CaO SiO2
bgscales = 1.0
rpoly = 0.9
qmaxinst = 23.7031
qmin = 0.5
qmax = 20
rmin = 0
rmax = 60
rstep = 0.01

# End of config --------------------------------------------------------------

#### start data
#S 1
#L r(Å)  G(Å$^{-2}$)
0 0
0.01 0.000155212
0.02 0.000294014
0.03 0.000402973
0.04 0.000470364
0.05 0.000479924
0.06 0.000429189
0.07 0.000318523
0.08 0.000149895
0.09 -7.44622e-05
0.1 -0.000342691
0.11 -0.000637402
0.12 -0.000942857
0.13 -0.00124056
0.14 -0.00150707
0.15 -0.00172589
0.16 -0.0018807
0.17 -0.00195743
0.18 -0.00193051
0.19 -0.001808
0.2 -0.00158997
0.21 -0.00128186
0.22 -0.00088703
0.23 -0.000432341
0.24 5.60421e-05
0.25 0.000550626
0.26 0.0010156
0.27 0.00141095
0.28 0.0017051
0.29 0.00186516
0.3 0.00185273
0.31 0.00162411
0.32 0.00118198
0.33 0.000516857
0.34 -0.000372148
0.35 -0.00150446
0.36 -0.00281999
0.37 -0.00428199
0.38 -0.00584224
0.39 -0.00743742
0.4 -0.00898161
0.41 -0.0103925
0.42 -0.0115824
0.43 -0.0124242
0.44 -0.0128067
0.45 -0.0126625
0.46 -0.0119029
0.47 -0.0104123
0.48 -0.0080542
0.49 -0.00485847
0.5 -0.00078866
0.51 0.00417726
0.52 0.0101673
0.53 0.0170104
0.54 0.0246521
0.55 0.0330151
0.56 0.0420625
0.57 0.0515952
0.58 0.0614462
0.59 0.071454
0.6 0.0814259
0.61 0.0911399
0.62 0.100409
0.63 0.109043
0.64 0.116807
0.65 0.123424
0.66 0.128832
0.67 0.132888
0.68 0.13546
0.69 0.136207
0.7 0.1353
0.71 0.132708
0.72 0.12843
0.73 0.122294
0.74 0.114531
0.75 0.105295
0.76 0.0947124
0.77 0.0828448
0.78 0.0699166
0.79 0.0562054
0.8 0.0419149
0.81 0.0272489
0.82 0.0124487
0.83 -0.00224143
0.84 -0.0166221
0.85 -0.0305012
0.86 -0.043587
0.87 -0.0558202
0.88 -0.0670815
0.89 -0.0772774
0.9 -0.0861911
0.91 -0.093893
0.92 -0.100418
0.93 -0.105789
0.94 -0.109966
0.95 -0.113056
0.96 -0.115237
0.97 -0.116621
0.98 -0.117309
0.99 -0.117429
1 -0.117193
1.01 -0.116742
1.02 -0.116215
1.03 -0.11577
1.04 -0.115531
1.05 -0.115605
1.06 -0.116082
1.07 -0.117108
1.08 -0.1187
1.09 -0.120878
1.1 -0.123663
1.11 -0.127113
1.12 -0.131201
1.13 -0.135857
1.14 -0.141044
1.15 -0.146734
1.16 -0.152891
1.17 -0.159401
1.18 -0.166202
1.19 -0.173233
1.2 -0.180442
1.21 -0.187737
1.22 -0.195057
1.23 -0.202346
1.24 -0.209528
1.25 -0.216549
1.26 -0.223359
1.27 -0.229901
1.28 -0.236084
1.29 -0.24184
1.3 -0.247125
1.31 -0.251864
1.32 -0.255938
1.33 -0.259199
1.34 -0.261615
1.35 -0.263077
1.36 -0.263455
1.37 -0.262446
1.38 -0.260084
1.39 -0.256243
1.4 -0.250798
1.41 -0.243387
1.42 -0.234068
1.43 -0.222799
1.44 -0.209508
1.45 -0.193952
1.46 -0.176166
1.47 -0.156309
1.48 -0.134436
1.49 -0.110545
1.5 -0.0847036
1.51 -0.0572996
1.52 -0.0285576
1.53 0.00126931
1.54 0.0319291
1.55 0.0629315
1.56 0.0939058
1.57 0.124459
1.58 0.154013
1.59 0.18218
1.6 0.208561
1.61 0.232748
1.62 0.254061
1.63 0.272144
1.64 0.286844
1.65 0.297876
1.66 0.304778
1.67 0.307137
1.68 0.305266
1.69 0.299123
1.7 0.288666
1.71 0.273472
1.72 0.254328
1.73 0.231471
1.74 0.205195
1.75 0.175484
1.76 0.143139
1.77 0.108677
1.78 0.0725727
1.79 0.0352584
1.8 -0.00263026
1.81 -0.0405225
1.82 -0.0779263
1.83 -0.114288
1.84 -0.149019
1.85 -0.181836
1.86 -0.212391
1.87 -0.240336
1.88 -0.26504
1.89 -0.286712
1.9 -0.305244
1.91 -0.320585
1.92 -0.332308
1.93 -0.34086
1.94 -0.346437
1.95 -0.349204
1.96 -0.349133
1.97 -0.346595
1.98 -0.342007
1.99 -0.33564
2 -0.327696
2.01 -0.318438
2.02 -0.308267
2.03 -0.297416
2.04 -0.286087
2.05 -0.274449
2.06 -0.262696
2.07 -0.250925
2.08 -0.239202
2.09 -0.227563
2.1 -0.215984
2.11 -0.204417
2.12 -0.19279
2.13 -0.180981
2.14 -0.168864
2.15 -0.15633
2.16 -0.143256
2.17 -0.129479
2.18 -0.114845
2.19 -0.0993421
2.2 -0.0829136
2.21 -0.0655127
2.22 -0.0470366
2.23 -0.0276718
2.24 -0.00750765
2.25 0.0133297
2.26 0.0347217
2.27 0.0563758
2.28 0.0780453
2.29 0.0994682
2.3 0.120278
2.31 0.140145
2.32 0.158799
2.33 0.175938
2.34 0.191139
2.35 0.203994
2.36 0.214443
2.37 0.222271
2.38 0.227233
2.39 0.228833
2.4 0.227387
2.41 0.222865
2.42 0.215291
2.43 0.204327
2.44 0.190491
2.45 0.17402
2.46 0.155138
2.47 0.133921
2.48 0.11082
2.49 0.0862866
2.5 0.0606688
2.51 0.0343056
2.52 0.00761702
2.53 -0.018978
2.54 -0.0451372
2.55 -0.0705128
2.56 -0.0946428
2.57 -0.11739
2.58 -0.13854
2.59 -0.157918
2.6 -0.175112
2.61 -0.190276
2.62 -0.20342
2.63 -0.214566
2.64 -0.223587
2.65 -0.230705
2.66 -0.236179
2.67 -0.240188
2.68 -0.242871
2.69 -0.244462
2.7 -0.245315
2.71 -0.245671
2.72 -0.245768
2.73 -0.245869
2.74 -0.246209
2.75 -0.246978
2.76 -0.248336
2.77 -0.250536
2.78 -0.253589
2.79 -0.257537
2.8 -0.262397
2.81 -0.268239
2.82 -0.274945
2.83 -0.282367
2.84 -0.290377
2.85 -0.298831
2.86 -0.307518
2.87 -0.316196
2.88 -0.324648
2.89 -0.332632
2.9 -0.33981
2.91 -0.346031
2.92 -0.351084
2.93 -0.354773
2.94 -0.356675
2.95 -0.356827
2.96 -0.355135
2.97 -0.35151
2.98 -0.345686
2.99 -0.33775
3 -0.327833
3.01 -0.315992
3.02 -0.302202
3.03 -0.286569
3.04 -0.269417
3.05 -0.250927
3.06 -0.231276
3.07 -0.210627
3.08 -0.189355
3.09 -0.167703
3.1 -0.145914
3.11 -0.124278
3.12 -0.103043
3.13 -0.0824284
3.14 -0.0626374
3.15 -0.0439833
3.16 -0.0265953
3.17 -0.0105497
3.18 0.00404995
3.19 0.0170201
3.2 0.0282751
3.21 0.0379478
3.22 0.0460587
3.23 0.0526141
3.24 0.0575583
3.25 0.0611931
3.26 0.0636446
3.27 0.0650564
3.28 0.065481
3.29 0.0652346
3.3 0.0645062
3.31 0.0634794
3.32 0.0623454
3.33 0.0613203
3.34 0.0605783
3.35 0.0602789
3.36 0.060619
3.37 0.0617651
3.38 0.0637669
3.39 0.0667095
3.4 0.0706888
3.41 0.0758534
3.42 0.0820825
3.43 0.0893653
3.44 0.0976691
3.45 0.107076
3.46 0.117361
3.47 0.128421
3.48 0.140144
3.49 0.152449
3.5 0.165145
3.51 0.17806
3.52 0.191047
3.53 0.203937
3.54 0.216546
3.55 0.22874
3.56 0.24038
3.57 0.25131
3.58 0.261315
3.59 0.270383
3.6 0.278427
3.61 0.285372
3.62 0.290977
3.63 0.295366
3.64 0.298528
3.65 0.300455
3.66 0.301023
3.67 0.30034
3.68 0.298506
3.69 0.29557
3.7 0.291522
3.71 0.286431
3.72 0.280461
3.73 0.273692
3.74 0.266183
3.75 0.25797
3.76 0.249221
3.77 0.240012
3.78 0.230415
3.79 0.220455
3.8 0.210248
3.81 0.199846
3.82 0.189296
3.83 0.178626
3.84 0.16788
3.85 0.157087
3.86 0.146266
3.87 0.13543
3.88 0.124593
3.89 0.113764
3.9 0.102949
3.91 0.0921588
3.92 0.0814062
3.93 0.0707009
3.94 0.0600593
3.95 0.0495018
3.96 0.039076
3.97 0.0288014
3.98 0.0187162
3.99 0.0088645
4 -0.000664943
4.01 -0.00982833
4.02 -0.0185789
4.03 -0.026854
4.04 -0.0345429
4.05 -0.0415627
4.06 -0.0478963
4.07 -0.0534823
4.08 -0.0582321
4.09 -0.0620116
4.1 -0.0648795
4.11 -0.0668022
4.12 -0.0677552
4.13 -0.0675701
4.14 -0.0663988
4.15 -0.0642578
4.16 -0.0611729
4.17 -0.0570817
4.18 -0.0521126
4.19 -0.0463689
4.2 -0.0399261
4.21 -0.0328284
4.22 -0.0251868
4.23 -0.0171513
4.24 -0.0088273
4.25 -0.000320632
4.26 0.00824631
4.27 0.0167476
4.28 0.0250796
4.29 0.0331437
4.3 0.0407779
4.31 0.0479484
4.32 0.0545857
4.33 0.0606314
4.34 0.0659588
4.35 0.070582
4.36 0.0745116
4.37 0.0777452
4.38 0.080241
4.39 0.0820285
4.4 0.083202
4.41 0.0838112
4.42 0.0838979
4.43 0.0835076
4.44 0.0827749
4.45 0.0817802
4.46 0.0806063
4.47 0.0793358
4.48 0.0780768
4.49 0.0769096
4.5 0.0759106
4.51 0.0751875
4.52 0.0747934
4.53 0.0747716
4.54 0.0751669
4.55 0.0760531
4.56 0.0774578
4.57 0.0793562
4.58 0.0817501
4.59 0.0846508
4.6 0.0880729
4.61 0.0919301
4.62 0.0961859
4.63 0.100798
4.64 0.105757
4.65 0.110954
4.66 0.11633
4.67 0.121826
4.68 0.12738
4.69 0.132915
4.7 0.138369
4.71 0.143684
4.72 0.148784
4.73 0.153606
4.74 0.158119
4.75 0.162279
4.76 0.166029
4.77 0.169294
4.78 0.172094
4.79 0.174403
4.8 0.176198
4.81 0.177377
4.82 0.178008
4.83 0.178081
4.84 0.177589
4.85 0.176453
4.86 0.174722
4.87 0.172414
4.88 0.169529
4.89 0.166021
4.9 0.161899
4.91 0.157211
4.92 0.151962
4.93 0.146137
4.94 0.13971
4.95 0.132755
4.96 0.125288
4.97 0.117324
4.98 0.108816
4.99 0.0998642
5 0.0904978
5.01 0.080748
5.02 0.0706119
5.03 0.0601667
5.04 0.049468
5.05 0.0385629
5.06 0.0274927
5.07 0.0163227
5.08 0.00511891
5.09 -0.00606208
5.1 -0.0171565
5.11 -0.0280874
5.12 -0.0388095
5.13 -0.0492683
5.14 -0.0594097
5.15 -0.0691239
5.16 -0.078418
5.17 -0.0872531
5.18 -0.0955953
5.19 -0.103347
5.2 -0.110532
5.21 -0.117153
5.22 -0.123201
5.23 -0.128622
5.24 -0.133429
5.25 -0.137671
5.26 -0.141362
5.27 -0.144494
5.28 -0.147058
5.29 -0.149137
5.3 -0.150754
5.31 -0.151931
5.32 -0.152637
5.33 -0.152961
5.34 -0.152924
5.35 -0.152544
5.36 -0.151798
5.37 -0.150732
5.38 -0.149364
5.39 -0.1477
5.4 -0.145714
5.41 -0.143411
5.42 -0.140804
5.43 -0.137889
5.44 -0.134639
5.45 -0.131022
5.46 -0.127064
5.47 -0.122756
5.48 -0.118086
5.49 -0.112997
5.5 -0.107541
5.51 -0.10172
5.52 -0.0955388
5.53 -0.0889651
5.54 -0.0820516
5.55 -0.0748301
5.56 -0.0673266
5.57 -0.0595522
5.58 -0.0515545
5.59 -0.0433903
5.6 -0.0351021
5.61 -0.0267338
5.62 -0.0183386
5.63 -0.00997145
5.64 -0.00167931
5.65 0.0064902
5.66 0.0144637
5.67 0.0222212
5.68 0.0297263
5.69 0.0369468
5.7 0.043811
5.71 0.0503262
5.72 0.0564854
5.73 0.0622777
5.74 0.0676627
5.75 0.0726482
5.76 0.0772636
5.77 0.0815163
5.78 0.085399
5.79 0.0889074
5.8 0.0920932
5.81 0.094971
5.82 0.0975511
5.83 0.0998106
5.84 0.101803
5.85 0.103537
5.86 0.105018
5.87 0.106216
5.88 0.107156
5.89 0.107842
5.9 0.108266
5.91 0.108393
5.92 0.108217
5.93 0.107743
5.94 0.10696
5.95 0.105836
5.96 0.104341
5.97 0.102502
5.98 0.100314
5.99 0.0977695
6 0.0948287
6.01 0.0915526
6.02 0.087957
6.03 0.0840634
6.04 0.0798672
6.05 0.075437
6.06 0.0708198
6.07 0.0660606
6.08 0.0612049
6.09 0.056318
6.1 0.0514605
6.11 0.0466884
6.12 0.0420683
6.13 0.0376739
6.14 0.0335394
6.15 0.0297107
6.16 0.0262345
6.17 0.0231991
6.18 0.0205773
6.19 0.0183858
6.2 0.0166326
6.21 0.0153752
6.22 0.0145515
6.23 0.0141299
6.24 0.0140809
6.25 0.0143957
6.26 0.0150103
6.27 0.0158526
6.28 0.0168671
6.29 0.0179982
6.3 0.0191767
6.31 0.0203318
6.32 0.0214047
6.33 0.0223358
6.34 0.0230406
6.35 0.023496
6.36 0.0236628
6.37 0.0235092
6.38 0.0229611
6.39 0.0220415
6.4 0.0207529
6.41 0.0190982
6.42 0.017055
6.43 0.0146584
6.44 0.0119575
6.45 0.00898429
6.46 0.00576485
6.47 0.00233963
6.48 -0.00122442
6.49 -0.00488232
6.5 -0.00858909
6.51 -0.0122942
6.52 -0.0159513
6.53 -0.0195224
6.54 -0.0229733
6.55 -0.0262495
6.56 -0.0293415
6.57 -0.0322342
6.58 -0.0349141
6.59 -0.0373505
6.6 -0.0395484
6.61 -0.0415232
6.62 -0.0432803
6.63 -0.0448162
6.64 -0.0461355
6.65 -0.0472715
6.66 -0.048237
6.67 -0.0490417
6.68 -0.0496816
6.69 -0.0501878
6.7 -0.0505679
6.71 -0.0508266
6.72 -0.0509493
6.73 -0.0509486
6.74 -0.0508221
6.75 -0.0505621
6.76 -0.0501428
6.77 -0.0495552
6.78 -0.0487935
6.79 -0.0478421
6.8 -0.0466717
6.81 -0.0452554
6.82 -0.0435996
6.83 -0.0416915
6.84 -0.039515
6.85 -0.03703
6.86 -0.0342699
6.87 -0.031235
6.88 -0.0279295
6.89 -0.0243259
6.9 -0.0204716
6.91 -0.0163884
6.92 -0.0120973
6.93 -0.0076065
6.94 -0.00295662
6.95 0.00181173
6.96 0.00666655
6.97 0.0115756
6.98 0.0164988
6.99 0.0213978
7 0.0262387
7.01 0.0309861
7.02 0.0355896
7.03 0.0400337
7.04 0.0442913
7.05 0.0483375
7.06 0.0521131
7.07 0.0556253
7.08 0.0588607
7.09 0.0618038
7.1 0.0644081
7.11 0.0666748
7.12 0.0686113
7.13 0.070209
7.14 0.0714374
7.15 0.0722774
7.16 0.0727561
7.17 0.0728681
7.18 0.0725988
7.19 0.0719012
7.2 0.0708219
7.21 0.0693578
7.22 0.0675067
7.23 0.0652114
7.24 0.0625233
7.25 0.0594514
7.26 0.0560007
7.27 0.0521411
7.28 0.0479047
7.29 0.0433265
7.3 0.0384247
7.31 0.0332031
7.32 0.0276847
7.33 0.0219277
7.34 0.0159655
7.35 0.00983155
7.36 0.00355872
7.37 -0.00278893
7.38 -0.00916681
7.39 -0.015529
7.4 -0.0218129
7.41 -0.0279739
7.42 -0.0339673
7.43 -0.0397485
7.44 -0.0452434
7.45 -0.0504194
7.46 -0.0552548
7.47 -0.0597177
7.48 -0.0637511
7.49 -0.0673169
7.5 -0.0704348
7.51 -0.0730916
7.52 -0.075265
7.53 -0.0769006
7.54 -0.0780616
7.55 -0.0787521
7.56 -0.0789795
7.57 -0.0786887
7.58 -0.0779562
7.59 -0.0768021
7.6 -0.0752426
7.61 -0.0732546
7.62 -0.0708809
7.63 -0.0681592
7.64 -0.065107
7.65 -0.0617215
7.66 -0.0580165
7.67 -0.0540371
7.68 -0.0497999
7.69 -0.045315
7.7 -0.0405797
7.71 -0.0356429
7.72 -0.0305236
7.73 -0.0252419
7.74 -0.0198027
7.75 -0.0142531
7.76 -0.00862172
7.77 -0.0029384
7.78 0.00276247
7.79 0.0084379
7.8 0.0140484
7.81 0.0195528
7.82 0.0248938
7.83 0.0300133
7.84 0.034879
7.85 0.0394438
7.86 0.0436486
7.87 0.0474009
7.88 0.0507038
7.89 0.0535162
7.9 0.0558009
7.91 0.0574353
7.92 0.0584683
7.93 0.0588837
7.94 0.058666
7.95 0.0577338
7.96 0.0561258
7.97 0.0538791
7.98 0.0510057
7.99 0.0474819
8 0.043328
8.01 0.0386278
8.02 0.0334165
8.03 0.0277189
8.04 0.0215434
8.05 0.0149933
8.06 0.00811374
8.07 0.000950099
8.08 -0.00648266
8.09 -0.0141014
8.1 -0.0218636
8.11 -0.0297313
8.12 -0.0376736
8.13 -0.0456494
8.14 -0.0536288
8.15 -0.0615881
8.16 -0.0695025
8.17 -0.077351
8.18 -0.0851237
8.19 -0.0928089
8.2 -0.100393
8.21 -0.107855
8.22 -0.1152
8.23 -0.122419
8.24 -0.129501
8.25 -0.136411
8.26 -0.143157
8.27 -0.149723
8.28 -0.156092
8.29 -0.162217
8.3 -0.168087
8.31 -0.173687
8.32 -0.17899
8.33 -0.183944
8.34 -0.18851
8.35 -0.192688
8.36 -0.196453
8.37 -0.199762
8.38 -0.202547
8.39 -0.204845
8.4 -0.20664
8.41 -0.207921
8.42 -0.208601
8.43 -0.208758
8.44 -0.208399
8.45 -0.207536
8.46 -0.20613
8.47 -0.20424
8.48 -0.201915
8.49 -0.199185
8.5 -0.196056
8.51 -0.19257
8.52 -0.188794
8.53 -0.184766
8.54 -0.180515
8.55 -0.17607
8.56 -0.171487
8.57 -0.166796
8.58 -0.162025
8.59 -0.157189
8.6 -0.152316
8.61 -0.147417
8.62 -0.142501
8.63 -0.137568
8.64 -0.132616
8.65 -0.12764
8.66 -0.122631
8.67 -0.117572
8.68 -0.112446
8.69 -0.107245
8.7 -0.101953
8.71 -0.0965522
8.72 -0.0910211
8.73 -0.0853644
8.74 -0.0795773
8.75 -0.0736586
8.76 -0.0675916
8.77 -0.0614054
8.78 -0.0551124
8.79 -0.0487292
8.8 -0.04227
8.81 -0.0357679
8.82 -0.0292523
8.83 -0.0227515
8.84 -0.0163007
8.85 -0.00993563
8.86 -0.00368055
8.87 0.00243786
8.88 0.00838811
8.89 0.0141317
8.9 0.0196731
8.91 0.0250012
8.92 0.03011
8.93 0.0349637
8.94 0.0396035
8.95 0.0440401
8.96 0.0482888
8.97 0.0523518
8.98 0.0562702
8.99 0.0600775
9 0.0638024
9.01 0.0674727
9.02 0.0711245
9.03 0.0747898
9.04 0.078495
9.05 0.0822673
9.06 0.0861362
9.07 0.0901078
9.08 0.0941917
9.09 0.0983923
9.1 0.102726
9.11 0.107166
9.12 0.111699
9.13 0.116307
9.14 0.120972
9.15 0.125658
9.16 0.130333
9.17 0.134966
9.18 0.139514
9.19 0.14394
9.2 0.148216
9.21 0.152312
9.22 0.156191
9.23 0.159807
9.24 0.163166
9.25 0.166251
9.26 0.169052
9.27 0.171516
9.28 0.173689
9.29 0.175575
9.3 0.177183
9.31 0.178492
9.32 0.179545
9.33 0.180368
9.34 0.180981
9.35 0.18139
9.36 0.181621
9.37 0.181708
9.38 0.181666
9.39 0.18151
9.4 0.181245
9.41 0.180894
9.42 0.180463
9.43 0.179955
9.44 0.179356
9.45 0.178675
9.46 0.177904
9.47 0.177034
9.48 0.176038
9.49 0.174913
9.5 0.173649
9.51 0.172234
9.52 0.170642
9.53 0.168863
9.54 0.166903
9.55 0.164756
9.56 0.162414
9.57 0.159867
9.58 0.157143
9.59 0.154254
9.6 0.151212
9.61 0.148018
9.62 0.144716
9.63 0.14133
9.64 0.137885
9.65 0.134408
9.66 0.130933
9.67 0.127489
9.68 0.124102
9.69 0.120807
9.7 0.11763
9.71 0.114585
9.72 0.111689
9.73 0.108964
9.74 0.106435
9.75 0.104089
9.76 0.101929
9.77 0.0999568
9.78 0.0981955
9.79 0.0966114
9.8 0.0951971
9.81 0.0939441
9.82 0.0928613
9.83 0.0919235
9.84 0.091117
9.85 0.0904341
9.86 0.0898784
9.87 0.089443
9.88 0.0891177
9.89 0.0889031
9.9 0.088808
9.91 0.088846
9.92 0.0890122
9.93 0.0893159
9.94 0.0897692
9.95 0.0904081
9.96 0.0912214
9.97 0.0922201
9.98 0.0934144
9.99 0.0948396
10 0.0964817
10.01 0.0983367
10.02 0.100403
10.03 0.102694
10.04 0.105194
10.05 0.107873
10.06 0.110712
10.07 0.113695
10.08 0.116795
10.09 0.119967
10.1 0.123176
10.11 0.126384
10.12 0.129543
10.13 0.132612
10.14 0.135553
10.15 0.138326
10.16 0.140861
10.17 0.143138
10.18 0.14513
10.19 0.146808
10.2 0.148112
10.21 0.149025
10.22 0.149554
10.23 0.149687
10.24 0.149394
10.25 0.148649
10.26 0.147498
10.27 0.145944
10.28 0.143992
10.29 0.141603
10.3 0.138847
10.31 0.135739
10.32 0.132295
10.33 0.128492
10.34 0.124382
10.35 0.11999
10.36 0.115331
10.37 0.110397
10.38 0.105211
10.39 0.0998004
10.4 0.0941772
10.41 0.0883403
10.42 0.0822902
10.43 0.0760565
10.44 0.0696475
10.45 0.0630692
10.46 0.0563111
10.47 0.0494072
10.48 0.0423685
10.49 0.0352075
10.5 0.0279257
10.51 0.0205533
10.52 0.0131111
10.53 0.00561887
10.54 -0.00190247
10.55 -0.0094248
10.56 -0.0169224
10.57 -0.0243704
10.58 -0.0317382
10.59 -0.0389915
10.6 -0.0461149
10.61 -0.0530857
10.62 -0.0598802
10.63 -0.0664523
10.64 -0.0728125
10.65 -0.0789486
10.66 -0.0848514
10.67 -0.0904821
10.68 -0.0958652
10.69 -0.101008
10.7 -0.105916
10.71 -0.110573
10.72 -0.115001
10.73 -0.119226
10.74 -0.12326
10.75 -0.127108
10.76 -0.13078
10.77 -0.134307
10.78 -0.1377
10.79 -0.140969
10.8 -0.144108
10.81 -0.14714
10.82 -0.150066
10.83 -0.152886
10.84 -0.15558
10.85 -0.158151
10.86 -0.160593
10.87 -0.162892
10.88 -0.165017
10.89 -0.166953
10.9 -0.168694
10.91 -0.170221
10.92 -0.171505
10.93 -0.172515
10.94 -0.173263
10.95 -0.173738
10.96 -0.173927
10.97 -0.173791
10.98 -0.173373
10.99 -0.172676
11 -0.171712
11.01 -0.17046
11.02 -0.168973
11.03 -0.167277
11.04 -0.1654
11.05 -0.163356
11.06 -0.161189
11.07 -0.158939
11.08 -0.15664
11.09 -0.154323
11.1 -0.152026
11.11 -0.14978
11.12 -0.14761
11.13 -0.145541
11.14 -0.143609
11.15 -0.141816
11.16 -0.140169
11.17 -0.138675
11.18 -0.137357
11.19 -0.136193
11.2 -0.135172
11.21 -0.134283
11.22 -0.133525
11.23 -0.132874
11.24 -0.132305
11.25 -0.131802
11.26 -0.131349
11.27 -0.130928
11.28 -0.130519
11.29 -0.130111
11.3 -0.129693
11.31 -0.129255
11.32 -0.128796
11.33 -0.128316
11.34 -0.12782
11.35 -0.127314
11.36 -0.12681
11.37 -0.126322
11.38 -0.125863
11.39 -0.125457
11.4 -0.125121
11.41 -0.124869
11.42 -0.124717
11.43 -0.124687
11.44 -0.124797
11.45 -0.125047
11.46 -0.125441
11.47 -0.125986
11.48 -0.126697
11.49 -0.127548
11.5 -0.12853
11.51 -0.129629
11.52 -0.130841
11.53 -0.132131
11.54 -0.133476
11.55 -0.13485
11.56 -0.136227
11.57 -0.137577
11.58 -0.138873
11.59 -0.140092
11.6 -0.141204
11.61 -0.142179
11.62 -0.143013
11.63 -0.143689
11.64 -0.144195
11.65 -0.144502
11.66 -0.144633
11.67 -0.144589
11.68 -0.144374
11.69 -0.143974
11.7 -0.143424
11.71 -0.142739
11.72 -0.141934
11.73 -0.141017
11.74 -0.140011
11.75 -0.138939
11.76 -0.137817
11.77 -0.136655
11.78 -0.135468
11.79 -0.134267
11.8 -0.133059
11.81 -0.131848
11.82 -0.130633
11.83 -0.129412
11.84 -0.128178
11.85 -0.126925
11.86 -0.125635
11.87 -0.124298
11.88 -0.122901
11.89 -0.121431
11.9 -0.11986
11.91 -0.11818
11.92 -0.11638
11.93 -0.11445
11.94 -0.112371
11.95 -0.11013
11.96 -0.107738
11.97 -0.105192
11.98 -0.102491
11.99 -0.0996239
12 -0.0966193
12.01 -0.0934872
12.02 -0.0902397
12.03 -0.0868782
12.04 -0.083434
12.05 -0.0799249
12.06 -0.0763677
12.07 -0.0727775
12.08 -0.0691752
12.09 -0.0655769
12.1 -0.0619964
12.11 -0.0584482
