[DEFAULT]

version = diffpy.pdfgetx-2.2.1

# input and output specifications
dataformat = twotheta
inputfile = Synthetic_CSH_CSH_pdf_ramp_1000_00_normalized.chi
backgroundfiles = quartz_030degC_normalized.chi
outputtype = gr

# PDF calculation setup
mode = xray
wavelength = 0.2113
twothetazero = 0
composition = CaO SiO2
bgscales = 1.0
rpoly = 0.9
qmaxinst = 23.7031
qmin = 0.5
qmax = 20
rmin = 0
rmax = 60
rstep = 0.01

# End of config --------------------------------------------------------------

#### start data
#S 1
#L r(Å)  G(Å$^{-2}$)
0 0
0.01 -0.000118018
0.02 -0.000244337
0.03 -0.000385432
0.04 -0.000546366
0.05 -0.000733102
0.06 -0.000943962
0.07 -0.00117504
0.08 -0.00142051
0.09 -0.00167134
0.1 -0.00191376
0.11 -0.00213384
0.12 -0.00231675
0.13 -0.00244445
0.14 -0.00249451
0.15 -0.00246089
0.16 -0.00233353
0.17 -0.00210569
0.18 -0.00175934
0.19 -0.00131504
0.2 -0.000782737
0.21 -0.000177976
0.22 0.000481082
0.23 0.00115853
0.24 0.0018202
0.25 0.0024304
0.26 0.00294053
0.27 0.0033047
0.28 0.00349344
0.29 0.00347294
0.3 0.00320311
0.31 0.00263982
0.32 0.00180131
0.33 0.000687481
0.34 -0.000690996
0.35 -0.00234136
0.36 -0.0041814
0.37 -0.00615667
0.38 -0.0082002
0.39 -0.0102208
0.4 -0.0121145
0.41 -0.0137824
0.42 -0.0151192
0.43 -0.0159706
0.44 -0.0162109
0.45 -0.0157732
0.46 -0.0145628
0.47 -0.0124551
0.48 -0.00930536
0.49 -0.00516976
0.5 -2.38991e-05
0.51 0.00613837
0.52 0.0134359
0.53 0.0216542
0.54 0.0307106
0.55 0.0404969
0.56 0.0509362
0.57 0.0617922
0.58 0.0728651
0.59 0.0839605
0.6 0.0948375
0.61 0.105242
0.62 0.114976
0.63 0.12383
0.64 0.131543
0.65 0.137809
0.66 0.142595
0.67 0.145764
0.68 0.147195
0.69 0.146533
0.7 0.144012
0.71 0.139631
0.72 0.133426
0.73 0.125253
0.74 0.115402
0.75 0.104073
0.76 0.0914351
0.77 0.0776025
0.78 0.0628465
0.79 0.0474741
0.8 0.0317207
0.81 0.0158281
0.82 7.69774e-05
0.83 -0.0153031
0.84 -0.0301077
0.85 -0.0441451
0.86 -0.057099
0.87 -0.068968
0.88 -0.0796576
0.89 -0.0891039
0.9 -0.0971111
0.91 -0.103808
0.92 -0.109274
0.93 -0.113575
0.94 -0.116718
0.95 -0.118858
0.96 -0.120206
0.97 -0.120906
0.98 -0.121096
0.99 -0.12094
1 -0.120641
1.01 -0.120347
1.02 -0.120195
1.03 -0.120361
1.04 -0.120919
1.05 -0.12195
1.06 -0.123514
1.07 -0.125729
1.08 -0.128558
1.09 -0.131978
1.1 -0.135966
1.11 -0.140529
1.12 -0.145594
1.13 -0.151061
1.14 -0.156862
1.15 -0.162934
1.16 -0.169201
1.17 -0.175569
1.18 -0.181972
1.19 -0.188353
1.2 -0.194643
1.21 -0.200812
1.22 -0.206828
1.23 -0.212669
1.24 -0.218293
1.25 -0.223708
1.26 -0.228913
1.27 -0.2339
1.28 -0.238635
1.29 -0.243103
1.3 -0.247291
1.31 -0.251162
1.32 -0.254638
1.33 -0.257613
1.34 -0.260038
1.35 -0.261811
1.36 -0.262799
1.37 -0.262722
1.38 -0.261551
1.39 -0.259128
1.4 -0.255294
1.41 -0.24966
1.42 -0.242217
1.43 -0.23287
1.44 -0.221499
1.45 -0.207802
1.46 -0.191759
1.47 -0.173492
1.48 -0.153017
1.49 -0.130285
1.5 -0.105321
1.51 -0.0785193
1.52 -0.050096
1.53 -0.0202983
1.54 0.0106506
1.55 0.0422032
1.56 0.0739664
1.57 0.105519
1.58 0.136269
1.59 0.165765
1.6 0.193565
1.61 0.219218
1.62 0.242
1.63 0.261507
1.64 0.277548
1.65 0.289808
1.66 0.297785
1.67 0.301032
1.68 0.299862
1.69 0.294226
1.7 0.284076
1.71 0.268968
1.72 0.249732
1.73 0.22662
1.74 0.199947
1.75 0.169711
1.76 0.136757
1.77 0.101636
1.78 0.0648511
1.79 0.0268685
1.8 -0.0116446
1.81 -0.0500945
1.82 -0.0879688
1.83 -0.124691
1.84 -0.159656
1.85 -0.192585
1.86 -0.223132
1.87 -0.250952
1.88 -0.275413
1.89 -0.296757
1.9 -0.314893
1.91 -0.329791
1.92 -0.341049
1.93 -0.349141
1.94 -0.354288
1.95 -0.356677
1.96 -0.356307
1.97 -0.353565
1.98 -0.348874
1.99 -0.342511
2 -0.334685
2.01 -0.325659
2.02 -0.315812
2.03 -0.305361
2.04 -0.294491
2.05 -0.283345
2.06 -0.272082
2.07 -0.260773
2.08 -0.249448
2.09 -0.238099
2.1 -0.226678
2.11 -0.215113
2.12 -0.203307
2.13 -0.191097
2.14 -0.178349
2.15 -0.164958
2.16 -0.1508
2.17 -0.135703
2.18 -0.119518
2.19 -0.102275
2.2 -0.0839417
2.21 -0.0644975
2.22 -0.0438673
2.23 -0.0222936
2.24 9.43101e-05
2.25 0.0231292
2.26 0.0466365
2.27 0.0702865
2.28 0.0937972
2.29 0.116873
2.3 0.139094
2.31 0.160112
2.32 0.179655
2.33 0.197408
2.34 0.21293
2.35 0.225806
2.36 0.236015
2.37 0.243358
2.38 0.247609
2.39 0.24828
2.4 0.245748
2.41 0.24002
2.42 0.231151
2.43 0.21884
2.44 0.20365
2.45 0.185853
2.46 0.165704
2.47 0.143318
2.48 0.119167
2.49 0.0937168
2.5 0.0673268
2.51 0.0403526
2.52 0.0132214
2.53 -0.0136678
2.54 -0.0399816
2.55 -0.0653832
2.56 -0.0894181
2.57 -0.111986
2.58 -0.132894
2.59 -0.151992
2.6 -0.168888
2.61 -0.183767
2.62 -0.196658
2.63 -0.2076
2.64 -0.21649
2.65 -0.223559
2.66 -0.229071
2.67 -0.233206
2.68 -0.236109
2.69 -0.23801
2.7 -0.239246
2.71 -0.240046
2.72 -0.240635
2.73 -0.241259
2.74 -0.242131
2.75 -0.243422
2.76 -0.245276
2.77 -0.247919
2.78 -0.251351
2.79 -0.255604
2.8 -0.260685
2.81 -0.266646
2.82 -0.273372
2.83 -0.280721
2.84 -0.288567
2.85 -0.296772
2.86 -0.305132
2.87 -0.313428
2.88 -0.321457
2.89 -0.328993
2.9 -0.335719
2.91 -0.3415
2.92 -0.346144
2.93 -0.349469
2.94 -0.351076
2.95 -0.351005
2.96 -0.349171
2.97 -0.345489
2.98 -0.339704
2.99 -0.331897
3 -0.322189
3.01 -0.310629
3.02 -0.297187
3.03 -0.281954
3.04 -0.265236
3.05 -0.247199
3.06 -0.228004
3.07 -0.207794
3.08 -0.186933
3.09 -0.165648
3.1 -0.144172
3.11 -0.122776
3.12 -0.10171
3.13 -0.0811878
3.14 -0.0614133
3.15 -0.0426931
3.16 -0.0251649
3.17 -0.00891547
3.18 0.00594394
3.19 0.0192231
3.2 0.030825
3.21 0.0408682
3.22 0.0493632
3.23 0.056307
3.24 0.0616339
3.25 0.0656398
3.26 0.0684467
3.27 0.0701966
3.28 0.0709404
3.29 0.0710006
3.3 0.0705725
3.31 0.0698475
3.32 0.0690295
3.33 0.0683474
3.34 0.0679871
3.35 0.0681211
3.36 0.0689644
3.37 0.0706992
3.38 0.0733793
3.39 0.0770978
3.4 0.0819599
3.41 0.0881273
3.42 0.0954647
3.43 0.103956
3.44 0.113561
3.45 0.124361
3.46 0.1361
3.47 0.148657
3.48 0.161897
3.49 0.175716
3.5 0.18989
3.51 0.204224
3.52 0.218544
3.53 0.232646
3.54 0.246318
3.55 0.259414
3.56 0.271777
3.57 0.283231
3.58 0.293529
3.59 0.30268
3.6 0.310596
3.61 0.317206
3.62 0.322248
3.63 0.32589
3.64 0.328139
3.65 0.32901
3.66 0.328389
3.67 0.326422
3.68 0.323241
3.69 0.318922
3.7 0.313482
3.71 0.307022
3.72 0.299729
3.73 0.291701
3.74 0.283019
3.75 0.273744
3.76 0.264039
3.77 0.253985
3.78 0.243654
3.79 0.233084
3.8 0.222364
3.81 0.211535
3.82 0.200627
3.83 0.189656
3.84 0.178642
3.85 0.16759
3.86 0.1565
3.87 0.145363
3.88 0.134171
3.89 0.122922
3.9 0.11161
3.91 0.100232
3.92 0.0887882
3.93 0.0772982
3.94 0.0657812
3.95 0.0542645
3.96 0.0427962
3.97 0.0314227
3.98 0.0201993
3.99 0.00918907
4 -0.0014959
4.01 -0.0117868
4.02 -0.0216154
4.03 -0.030898
4.04 -0.0394954
4.05 -0.0473029
4.06 -0.0542962
4.07 -0.0604022
4.08 -0.0655179
4.09 -0.0694907
4.1 -0.0723976
4.11 -0.0742082
4.12 -0.0749052
4.13 -0.0743111
4.14 -0.0726142
4.15 -0.0698476
4.16 -0.0660555
4.17 -0.0611902
4.18 -0.0554088
4.19 -0.0488377
4.2 -0.041572
4.21 -0.0336784
4.22 -0.025288
4.23 -0.0165632
4.24 -0.00762117
4.25 0.00141984
4.26 0.0104234
4.27 0.0192714
4.28 0.0278606
4.29 0.036096
4.3 0.0438097
4.31 0.0509896
4.32 0.0575766
4.33 0.0635233
4.34 0.0687124
4.35 0.0731745
4.36 0.0769335
4.37 0.0799978
4.38 0.0823365
4.39 0.0839887
4.4 0.0850531
4.41 0.0855827
4.42 0.0856219
4.43 0.0852172
4.44 0.0844959
4.45 0.0835328
4.46 0.0824039
4.47 0.0811827
4.48 0.079966
4.49 0.0788245
4.5 0.0778247
4.51 0.0770595
4.52 0.0765755
4.53 0.0764107
4.54 0.0766045
4.55 0.0772225
4.56 0.0782912
4.57 0.0797923
4.58 0.0817314
4.59 0.0841238
4.6 0.08699
4.61 0.0902595
4.62 0.0939071
4.63 0.0979024
4.64 0.102251
4.65 0.106858
4.66 0.111676
4.67 0.116656
4.68 0.121754
4.69 0.126898
4.7 0.132028
4.71 0.137089
4.72 0.142011
4.73 0.146729
4.74 0.151198
4.75 0.155368
4.76 0.159171
4.77 0.162522
4.78 0.16542
4.79 0.167824
4.8 0.169696
4.81 0.170908
4.82 0.171517
4.83 0.171499
4.84 0.170831
4.85 0.169414
4.86 0.16729
4.87 0.164478
4.88 0.160973
4.89 0.15672
4.9 0.151732
4.91 0.146073
4.92 0.139756
4.93 0.132776
4.94 0.125115
4.95 0.116875
4.96 0.108089
4.97 0.0987898
4.98 0.0889513
4.99 0.0786944
5 0.0680645
5.01 0.0571095
5.02 0.0458518
5.03 0.0343762
5.04 0.0227457
5.05 0.0110148
5.06 -0.000760091
5.07 -0.0125123
5.08 -0.0241847
5.09 -0.0357234
5.1 -0.0470649
5.11 -0.0581334
5.12 -0.0689039
5.13 -0.0793316
5.14 -0.0893717
5.15 -0.098918
5.16 -0.107998
5.17 -0.116582
5.18 -0.124645
5.19 -0.132097
5.2 -0.138968
5.21 -0.145269
5.22 -0.150991
5.23 -0.156084
5.24 -0.160559
5.25 -0.164465
5.26 -0.167811
5.27 -0.170587
5.28 -0.172777
5.29 -0.174459
5.3 -0.175652
5.31 -0.176374
5.32 -0.176582
5.33 -0.176368
5.34 -0.175751
5.35 -0.174748
5.36 -0.173331
5.37 -0.171552
5.38 -0.169434
5.39 -0.166987
5.4 -0.164191
5.41 -0.161057
5.42 -0.15761
5.43 -0.153853
5.44 -0.149768
5.45 -0.145336
5.46 -0.140587
5.47 -0.135521
5.48 -0.130132
5.49 -0.124374
5.5 -0.118298
5.51 -0.111907
5.52 -0.105206
5.53 -0.0981683
5.54 -0.0908378
5.55 -0.0832407
5.56 -0.0753974
5.57 -0.0673146
5.58 -0.0590305
5.59 -0.0505925
5.6 -0.0420354
5.61 -0.033395
5.62 -0.0247161
5.63 -0.0160483
5.64 -0.00743389
5.65 0.00108303
5.66 0.00943471
5.67 0.0175969
5.68 0.0255313
5.69 0.0332023
5.7 0.0405343
5.71 0.0475251
5.72 0.0541594
5.73 0.0604175
5.74 0.0662467
5.75 0.0716435
5.76 0.0766293
5.77 0.0812021
5.78 0.0853426
5.79 0.0890343
5.8 0.09233
5.81 0.0952401
5.82 0.0977721
5.83 0.0998922
5.84 0.101668
5.85 0.103113
5.86 0.104238
5.87 0.105016
5.88 0.105488
5.89 0.105671
5.9 0.10557
5.91 0.105163
5.92 0.104459
5.93 0.103477
5.94 0.102217
5.95 0.100663
5.96 0.0988002
5.97 0.0966574
5.98 0.0942365
5.99 0.0915376
6 0.0885327
6.01 0.0852721
6.02 0.0817698
6.03 0.0780436
6.04 0.0740919
6.05 0.0699673
6.06 0.0657067
6.07 0.0613452
6.08 0.0569202
6.09 0.0524835
6.1 0.0480834
6.11 0.0437657
6.12 0.0395865
6.13 0.0356088
6.14 0.0318613
6.15 0.0283847
6.16 0.0252212
6.17 0.0224511
6.18 0.0200531
6.19 0.018045
6.2 0.0164377
6.21 0.015289
6.22 0.0145467
6.23 0.0141862
6.24 0.014185
6.25 0.0145414
6.26 0.0152003
6.27 0.0160966
6.28 0.0171812
6.29 0.0184056
6.3 0.019707
6.31 0.0210153
6.32 0.0222736
6.33 0.0234232
6.34 0.024383
6.35 0.0251223
6.36 0.0255986
6.37 0.0257754
6.38 0.0255745
6.39 0.0250099
6.4 0.0240771
6.41 0.0227721
6.42 0.0210636
6.43 0.0189797
6.44 0.0165642
6.45 0.0138442
6.46 0.010839
6.47 0.00758355
6.48 0.00414694
6.49 0.000573479
6.5 -0.00309206
6.51 -0.00680207
6.52 -0.0105011
6.53 -0.0141472
6.54 -0.0177012
6.55 -0.0211058
6.56 -0.0243417
6.57 -0.0273873
6.58 -0.0302227
6.59 -0.03281
6.6 -0.0351477
6.61 -0.0372461
6.62 -0.039106
6.63 -0.0407182
6.64 -0.0420828
6.65 -0.0432334
6.66 -0.0441816
6.67 -0.044936
6.68 -0.0454889
6.69 -0.0458773
6.7 -0.0461101
6.71 -0.046194
6.72 -0.0461133
6.73 -0.0458862
6.74 -0.0455131
6.75 -0.0449883
6.76 -0.0442862
6.77 -0.0434002
6.78 -0.0423262
6.79 -0.0410492
6.8 -0.039539
6.81 -0.0377675
6.82 -0.0357414
6.83 -0.033447
6.84 -0.030866
6.85 -0.0279546
6.86 -0.0247472
6.87 -0.0212431
6.88 -0.0174455
6.89 -0.0133236
6.9 -0.00892782
6.91 -0.00428175
6.92 0.000591799
6.93 0.00568324
6.94 0.0109468
6.95 0.0163363
6.96 0.0218146
6.97 0.0273426
6.98 0.0328723
6.99 0.0383587
7 0.0437609
7.01 0.0490353
7.02 0.0541188
7.03 0.0589942
7.04 0.0636286
7.05 0.0679919
7.06 0.0720109
7.07 0.0756976
7.08 0.0790379
7.09 0.0820158
7.1 0.0845785
7.11 0.0867329
7.12 0.0884938
7.13 0.0898572
7.14 0.0907952
7.15 0.0912945
7.16 0.0913945
7.17 0.0910972
7.18 0.0903953
7.19 0.0892491
7.2 0.0877153
7.21 0.0857975
7.22 0.0834998
7.23 0.0807727
7.24 0.0776708
7.25 0.0742058
7.26 0.0703849
7.27 0.0661811
7.28 0.0616248
7.29 0.0567478
7.3 0.051566
7.31 0.0460802
7.32 0.040309
7.33 0.0343044
7.34 0.028095
7.35 0.0217091
7.36 0.015173
7.37 0.00854729
7.38 0.00187297
7.39 -0.00480694
7.4 -0.0114353
7.41 -0.0179655
7.42 -0.0243517
7.43 -0.0305481
7.44 -0.0364793
7.45 -0.0421073
7.46 -0.0474042
7.47 -0.0523322
7.48 -0.0568271
7.49 -0.0608417
7.5 -0.0643888
7.51 -0.0674474
7.52 -0.0699867
7.53 -0.0719393
7.54 -0.0733668
7.55 -0.0742676
7.56 -0.0746444
7.57 -0.0744282
7.58 -0.0737015
7.59 -0.0724844
7.6 -0.0707934
7.61 -0.0685998
7.62 -0.0659537
7.63 -0.0629006
7.64 -0.0594634
7.65 -0.0556428
7.66 -0.0514601
7.67 -0.0469724
7.68 -0.0422042
7.69 -0.0371738
7.7 -0.0318874
7.71 -0.0264035
7.72 -0.0207484
7.73 -0.0149492
7.74 -0.0090212
7.75 -0.00301407
7.76 0.00303969
7.77 0.00910707
7.78 0.0151468
7.79 0.0211171
7.8 0.0269803
7.81 0.032696
7.82 0.0382057
7.83 0.0434532
7.84 0.0484123
7.85 0.0530389
7.86 0.0572763
7.87 0.0610332
7.88 0.0643193
7.89 0.0670963
7.9 0.0693292
7.91 0.0708953
7.92 0.0718472
7.93 0.072169
7.94 0.0718453
7.95 0.0707924
7.96 0.0690482
7.97 0.0666482
7.98 0.063602
7.99 0.0598811
8 0.0555014
8.01 0.0505456
8.02 0.0450452
8.03 0.0390207
8.04 0.032473
8.05 0.0255075
8.06 0.0181674
8.07 0.0104967
8.08 0.0025021
8.09 -0.00572604
8.1 -0.014144
8.11 -0.0227117
8.12 -0.0314
8.13 -0.0401609
8.14 -0.0489578
8.15 -0.0577618
8.16 -0.0665434
8.17 -0.075274
8.18 -0.0839351
8.19 -0.0925079
8.2 -0.100971
8.21 -0.109293
8.22 -0.117474
8.23 -0.125497
8.24 -0.133347
8.25 -0.140974
8.26 -0.148388
8.27 -0.15557
8.28 -0.162499
8.29 -0.169119
8.3 -0.175422
8.31 -0.181397
8.32 -0.187019
8.33 -0.192231
8.34 -0.197002
8.35 -0.201339
8.36 -0.205221
8.37 -0.208611
8.38 -0.211447
8.39 -0.213774
8.4 -0.215586
8.41 -0.216878
8.42 -0.217569
8.43 -0.217747
8.44 -0.217425
8.45 -0.216618
8.46 -0.215297
8.47 -0.213523
8.48 -0.211348
8.49 -0.208801
8.5 -0.205894
8.51 -0.202667
8.52 -0.199183
8.53 -0.195477
8.54 -0.191577
8.55 -0.187505
8.56 -0.18331
8.57 -0.179018
8.58 -0.174646
8.59 -0.170204
8.6 -0.165711
8.61 -0.161174
8.62 -0.156592
8.63 -0.151957
8.64 -0.147262
8.65 -0.1425
8.66 -0.137658
8.67 -0.132713
8.68 -0.127648
8.69 -0.122455
8.7 -0.117124
8.71 -0.111636
8.72 -0.105971
8.73 -0.100144
8.74 -0.0941555
8.75 -0.0880118
8.76 -0.0817012
8.77 -0.0752639
8.78 -0.0687198
8.79 -0.0620928
8.8 -0.0554069
8.81 -0.0487015
8.82 -0.0420106
8.83 -0.0353673
8.84 -0.0288135
8.85 -0.0223873
8.86 -0.0161106
8.87 -0.0100094
8.88 -0.00411449
8.89 0.00153725
8.9 0.00695959
8.91 0.0121476
8.92 0.0171019
8.93 0.0217949
8.94 0.026278
8.95 0.0305705
8.96 0.0346962
8.97 0.0386701
8.98 0.0425397
8.99 0.046344
9 0.0501174
9.01 0.0538973
9.02 0.0577231
9.03 0.0616236
9.04 0.065625
9.05 0.069755
9.06 0.0740432
9.07 0.0784836
9.08 0.0830792
9.09 0.087827
9.1 0.0927373
9.11 0.0977688
9.12 0.102898
9.13 0.108098
9.14 0.113337
9.15 0.11857
9.16 0.123757
9.17 0.12886
9.18 0.133826
9.19 0.138611
9.2 0.143189
9.21 0.14753
9.22 0.151594
9.23 0.155332
9.24 0.158763
9.25 0.161874
9.26 0.164662
9.27 0.167079
9.28 0.169184
9.29 0.170991
9.3 0.172515
9.31 0.17375
9.32 0.174744
9.33 0.175532
9.34 0.176141
9.35 0.176583
9.36 0.176889
9.37 0.177091
9.38 0.177206
9.39 0.177246
9.4 0.177216
9.41 0.177129
9.42 0.176984
9.43 0.176775
9.44 0.176482
9.45 0.1761
9.46 0.175611
9.47 0.174999
9.48 0.174221
9.49 0.173267
9.5 0.172122
9.51 0.170768
9.52 0.169168
9.53 0.16731
9.54 0.165204
9.55 0.162847
9.56 0.16023
9.57 0.157346
9.58 0.154236
9.59 0.150921
9.6 0.147422
9.61 0.143751
9.62 0.139966
9.63 0.136103
9.64 0.132199
9.65 0.128295
9.66 0.124437
9.67 0.120659
9.68 0.116996
9.69 0.113494
9.7 0.110183
9.71 0.107075
9.72 0.104185
9.73 0.101538
9.74 0.0991568
9.75 0.0970148
9.76 0.0951079
9.77 0.0934292
9.78 0.091995
9.79 0.0907552
9.8 0.0896917
9.81 0.0887853
9.82 0.0880317
9.83 0.0873962
9.84 0.0868576
9.85 0.0864012
9.86 0.0860208
9.87 0.0857062
9.88 0.0854494
9.89 0.0852513
9.9 0.0851207
9.91 0.0850733
9.92 0.0851156
9.93 0.0852641
9.94 0.0855393
9.95 0.0859858
9.96 0.0866053
9.97 0.0874188
9.98 0.0884462
9.99 0.089737
10 0.0912839
10.01 0.0930891
10.02 0.0951572
10.03 0.0975108
10.04 0.100136
10.05 0.102999
10.06 0.106082
10.07 0.109366
10.08 0.112823
10.09 0.116394
10.1 0.120038
10.11 0.123709
10.12 0.12735
10.13 0.130906
10.14 0.13433
10.15 0.137571
10.16 0.140546
10.17 0.143228
10.18 0.145582
10.19 0.147574
10.2 0.149132
10.21 0.150237
10.22 0.150898
10.23 0.151102
10.24 0.150817
10.25 0.150017
10.26 0.148758
10.27 0.147049
10.28 0.144898
10.29 0.14227
10.3 0.139248
10.31 0.135854
10.32 0.132111
10.33 0.128003
10.34 0.123589
10.35 0.118901
10.36 0.113958
10.37 0.108758
10.38 0.103329
10.39 0.0976978
10.4 0.0918784
10.41 0.0858717
10.42 0.0796795
10.43 0.0733279
10.44 0.0668241
10.45 0.060173
10.46 0.0533649
10.47 0.046429
10.48 0.0393748
10.49 0.0322136
10.5 0.0249479
10.51 0.0176057
10.52 0.0102075
10.53 0.00277343
10.54 -0.0046732
10.55 -0.0121033
10.56 -0.0194907
10.57 -0.0268089
10.58 -0.0340244
10.59 -0.0411
10.6 -0.0480211
10.61 -0.0547645
10.62 -0.0613055
10.63 -0.0675952
10.64 -0.073649
10.65 -0.0794566
10.66 -0.0850114
10.67 -0.0902765
10.68 -0.0952829
10.69 -0.100043
10.7 -0.104568
10.71 -0.10885
10.72 -0.112916
10.73 -0.116797
10.74 -0.120512
10.75 -0.124074
10.76 -0.127499
10.77 -0.130819
10.78 -0.134047
10.79 -0.137196
10.8 -0.140265
10.81 -0.143269
10.82 -0.146208
10.83 -0.149077
10.84 -0.151853
10.85 -0.154531
10.86 -0.157093
10.87 -0.15952
10.88 -0.16177
10.89 -0.163818
10.9 -0.165649
10.91 -0.167237
10.92 -0.168541
10.93 -0.169521
10.94 -0.170188
10.95 -0.170526
10.96 -0.170521
10.97 -0.170125
10.98 -0.169389
10.99 -0.168323
11 -0.166942
11.01 -0.165227
11.02 -0.163245
11.03 -0.161034
11.04 -0.158629
11.05 -0.156061
11.06 -0.153383
11.07 -0.150648
11.08 -0.147899
11.09 -0.145182
11.1 -0.142548
11.11 -0.140028
11.12 -0.137653
11.13 -0.135455
11.14 -0.13348
11.15 -0.131717
11.16 -0.130171
11.17 -0.128845
11.18 -0.127762
11.19 -0.126883
11.2 -0.126186
11.21 -0.12565
11.22 -0.12526
11.23 -0.124979
11.24 -0.124769
11.25 -0.124602
11.26 -0.124448
11.27 -0.124275
11.28 -0.124061
11.29 -0.123786
11.3 -0.123434
11.31 -0.122985
11.32 -0.122446
11.33 -0.12182
11.34 -0.121115
11.35 -0.120337
11.36 -0.119514
11.37 -0.118669
11.38 -0.117827
11.39 -0.117023
11.4 -0.116287
11.41 -0.115646
11.42 -0.115127
11.43 -0.114767
11.44 -0.114596
11.45 -0.114617
11.46 -0.114843
11.47 -0.115285
11.48 -0.115969
11.49 -0.116861
11.5 -0.117948
11.51 -0.119215
11.52 -0.120657
11.53 -0.122226
11.54 -0.123886
11.55 -0.125604
11.56 -0.127344
11.57 -0.129059
11.58 -0.130714
11.59 -0.132272
11.6 -0.133691
11.61 -0.134931
11.62 -0.13598
11.63 -0.136818
11.64 -0.137423
11.65 -0.137759
11.66 -0.137855
11.67 -0.137712
11.68 -0.137338
11.69 -0.136717
11.7 -0.135896
11.71 -0.134899
11.72 -0.133749
11.73 -0.132462
11.74 -0.131073
11.75 -0.129615
11.76 -0.128114
11.77 -0.126591
11.78 -0.12507
11.79 -0.123569
11.8 -0.122099
11.81 -0.120671
11.82 -0.119293
11.83 -0.117957
11.84 -0.116658
11.85 -0.115387
11.86 -0.114131
11.87 -0.11287
11.88 -0.111586
11.89 -0.110259
11.9 -0.10886
11.91 -0.107369
11.92 -0.105772
11.93 -0.10405
11.94 -0.10218
11.95 -0.100142
11.96 -0.0979432
11.97 -0.0955784
11.98 -0.0930425
11.99 -0.0903224
12 -0.0874479
12.01 -0.0844298
12.02 -0.0812818
12.03 -0.0780059
12.04 -0.0746384
12.05 -0.0712004
12.06 -0.0677124
12.07 -0.0641938
12.08 -0.0606692
12.09 -0.0571583
12.1 -0.0536774
12.11 -0.0502448
