[DEFAULT]

version = diffpy.pdfgetx-2.2.1

# input and output specifications
dataformat = twotheta
inputfile = Synthetic_CSH_CSH_pdf_ramp_900_09_normalized.chi
backgroundfiles = quartz_030degC_normalized.chi
outputtype = gr

# PDF calculation setup
mode = xray
wavelength = 0.2113
twothetazero = 0
composition = CaO SiO2
bgscales = 1.0
rpoly = 0.9
qmaxinst = 23.7031
qmin = 0.5
qmax = 20
rmin = 0
rmax = 60
rstep = 0.01

# End of config --------------------------------------------------------------

#### start data
#S 1
#L r(Å)  G(Å$^{-2}$)
0 0
0.01 -0.000849504
0.02 -0.00167487
0.03 -0.00245532
0.04 -0.00317084
0.05 -0.00379033
0.06 -0.00430088
0.07 -0.00469118
0.08 -0.00494885
0.09 -0.00505212
0.1 -0.00499389
0.11 -0.00478356
0.12 -0.00442279
0.13 -0.00391162
0.14 -0.00325165
0.15 -0.00247511
0.16 -0.0016012
0.17 -0.000652931
0.18 0.000345762
0.19 0.00135337
0.2 0.00233672
0.21 0.00326099
0.22 0.00407441
0.23 0.00474396
0.24 0.00523962
0.25 0.00553011
0.26 0.00556667
0.27 0.00532429
0.28 0.00480713
0.29 0.0040082
0.3 0.00291726
0.31 0.00152809
0.32 -0.000103125
0.33 -0.00194301
0.34 -0.0039485
0.35 -0.00607365
0.36 -0.00822902
0.37 -0.0103411
0.38 -0.0123296
0.39 -0.0140715
0.4 -0.0154815
0.41 -0.0164768
0.42 -0.0169675
0.43 -0.016811
0.44 -0.0159168
0.45 -0.0142629
0.46 -0.0117922
0.47 -0.00842176
0.48 -0.00405771
0.49 0.00120391
0.5 0.00734908
0.51 0.0143479
0.52 0.0222553
0.53 0.0308605
0.54 0.0400643
0.55 0.0497497
0.56 0.059808
0.57 0.0700351
0.58 0.0802573
0.59 0.0903046
0.6 0.0999565
0.61 0.109007
0.62 0.117312
0.63 0.124709
0.64 0.130987
0.65 0.135903
0.66 0.139466
0.67 0.14158
0.68 0.142164
0.69 0.140934
0.7 0.138114
0.71 0.133715
0.72 0.127778
0.73 0.12019
0.74 0.111196
0.75 0.100962
0.76 0.0896247
0.77 0.0772667
0.78 0.0641004
0.79 0.0503684
0.8 0.0362499
0.81 0.0219237
0.82 0.007595
0.83 -0.00655199
0.84 -0.0203631
0.85 -0.0336936
0.86 -0.0463164
0.87 -0.0582122
0.88 -0.0693039
0.89 -0.0795359
0.9 -0.0887576
0.91 -0.097045
0.92 -0.104441
0.93 -0.110978
0.94 -0.116638
0.95 -0.121514
0.96 -0.12574
0.97 -0.129404
0.98 -0.132577
0.99 -0.135347
1 -0.137858
1.01 -0.140196
1.02 -0.142446
1.03 -0.144691
1.04 -0.147003
1.05 -0.149434
1.06 -0.152024
1.07 -0.154829
1.08 -0.157849
1.09 -0.16108
1.1 -0.16452
1.11 -0.16817
1.12 -0.172004
1.13 -0.175983
1.14 -0.180081
1.15 -0.184274
1.16 -0.188535
1.17 -0.19283
1.18 -0.197139
1.19 -0.201446
1.2 -0.205735
1.21 -0.21
1.22 -0.214238
1.23 -0.218447
1.24 -0.222623
1.25 -0.226766
1.26 -0.230873
1.27 -0.234934
1.28 -0.238923
1.29 -0.242807
1.3 -0.246551
1.31 -0.250101
1.32 -0.25337
1.33 -0.256238
1.34 -0.258634
1.35 -0.260442
1.36 -0.261522
1.37 -0.261594
1.38 -0.260618
1.39 -0.258439
1.4 -0.254901
1.41 -0.249631
1.42 -0.242624
1.43 -0.233793
1.44 -0.223031
1.45 -0.210057
1.46 -0.19486
1.47 -0.177563
1.48 -0.158186
1.49 -0.136689
1.5 -0.1131
1.51 -0.0877904
1.52 -0.0609643
1.53 -0.0328519
1.54 -0.00365863
1.55 0.0261074
1.56 0.056084
1.57 0.0858836
1.58 0.114964
1.59 0.142906
1.6 0.169304
1.61 0.193739
1.62 0.215544
1.63 0.234337
1.64 0.249937
1.65 0.262041
1.66 0.270176
1.67 0.273909
1.68 0.273515
1.69 0.268927
1.7 0.260083
1.71 0.246531
1.72 0.229031
1.73 0.207793
1.74 0.183089
1.75 0.154869
1.76 0.12392
1.77 0.0907441
1.78 0.0557984
1.79 0.0194896
1.8 -0.0175536
1.81 -0.0547573
1.82 -0.0916325
1.83 -0.127634
1.84 -0.162176
1.85 -0.194952
1.86 -0.225603
1.87 -0.253771
1.88 -0.27882
1.89 -0.300926
1.9 -0.319961
1.91 -0.335852
1.92 -0.348156
1.93 -0.357292
1.94 -0.363434
1.95 -0.366729
1.96 -0.367125
1.97 -0.364974
1.98 -0.360686
1.99 -0.354519
2 -0.346658
2.01 -0.337357
2.02 -0.327024
2.03 -0.315891
2.04 -0.304162
2.05 -0.291993
2.06 -0.279604
2.07 -0.267098
2.08 -0.25455
2.09 -0.241993
2.1 -0.229426
2.11 -0.21681
2.12 -0.204079
2.13 -0.191116
2.14 -0.177804
2.15 -0.164037
2.16 -0.149698
2.17 -0.13462
2.18 -0.118648
2.19 -0.10177
2.2 -0.0839257
2.21 -0.0650624
2.22 -0.0450662
2.23 -0.0241255
2.24 -0.00232585
2.25 0.0202092
2.26 0.0433711
2.27 0.0668577
2.28 0.090417
2.29 0.11378
2.3 0.136572
2.31 0.158447
2.32 0.179114
2.33 0.19825
2.34 0.215406
2.35 0.230142
2.36 0.242372
2.37 0.251854
2.38 0.25831
2.39 0.261189
2.4 0.260802
2.41 0.257096
2.42 0.250073
2.43 0.239337
2.44 0.225427
2.45 0.208579
2.46 0.189021
2.47 0.166806
2.48 0.142416
2.49 0.116343
2.5 0.0889643
2.51 0.0606468
2.52 0.0318561
2.53 0.00307641
2.54 -0.0252977
2.55 -0.0528616
2.56 -0.0790775
2.57 -0.103756
2.58 -0.126627
2.59 -0.147464
2.6 -0.165751
2.61 -0.181635
2.62 -0.195095
2.63 -0.206123
2.64 -0.214526
2.65 -0.220535
2.66 -0.224438
2.67 -0.226426
2.68 -0.226633
2.69 -0.225322
2.7 -0.22293
2.71 -0.219749
2.72 -0.216072
2.73 -0.212221
2.74 -0.208531
2.75 -0.205265
2.76 -0.202658
2.77 -0.201071
2.78 -0.200575
2.79 -0.201279
2.8 -0.203263
2.81 -0.2067
2.82 -0.211507
2.83 -0.217548
2.84 -0.224719
2.85 -0.23293
2.86 -0.241989
2.87 -0.25159
2.88 -0.261498
2.89 -0.271452
2.9 -0.281117
2.91 -0.290224
2.92 -0.298506
2.93 -0.305706
2.94 -0.311353
2.95 -0.315381
2.96 -0.31762
2.97 -0.317914
2.98 -0.315912
2.99 -0.311635
3 -0.30516
3.01 -0.296496
3.02 -0.28555
3.03 -0.272378
3.04 -0.257311
3.05 -0.240516
3.06 -0.22215
3.07 -0.202338
3.08 -0.181522
3.09 -0.159963
3.1 -0.13793
3.11 -0.115705
3.12 -0.0936205
3.13 -0.0719374
3.14 -0.050902
3.15 -0.0308612
3.16 -0.0120009
3.17 0.00555551
3.18 0.0216668
3.19 0.0361106
3.2 0.0487648
3.21 0.0597426
3.22 0.0690465
3.23 0.0766664
3.24 0.0825258
3.25 0.0869437
3.26 0.0900517
3.27 0.0920038
3.28 0.0928544
3.29 0.0929548
3.3 0.092517
3.31 0.091748
3.32 0.0908659
3.33 0.0901162
3.34 0.0896975
3.35 0.0897919
3.36 0.0906247
3.37 0.0923853
3.38 0.0951283
3.39 0.0989487
3.4 0.103953
3.41 0.110304
3.42 0.117861
3.43 0.126604
3.44 0.13649
3.45 0.147598
3.46 0.159669
3.47 0.172577
3.48 0.186185
3.49 0.200389
3.5 0.214964
3.51 0.229715
3.52 0.244466
3.53 0.259016
3.54 0.273152
3.55 0.286726
3.56 0.299582
3.57 0.31154
3.58 0.322352
3.59 0.332019
3.6 0.340447
3.61 0.347558
3.62 0.353075
3.63 0.357157
3.64 0.359798
3.65 0.361001
3.66 0.360625
3.67 0.358809
3.68 0.355671
3.69 0.351275
3.7 0.345617
3.71 0.338781
3.72 0.330961
3.73 0.322249
3.74 0.31272
3.75 0.30242
3.76 0.291541
3.77 0.280171
3.78 0.268395
3.79 0.256251
3.8 0.243867
3.81 0.231306
3.82 0.218621
3.83 0.205856
3.84 0.193058
3.85 0.180262
3.86 0.16749
3.87 0.154767
3.88 0.142112
3.89 0.129531
3.9 0.117035
3.91 0.104638
3.92 0.0923632
3.93 0.0802129
3.94 0.0682047
3.95 0.0563605
3.96 0.0447416
3.97 0.0333563
3.98 0.0222429
3.99 0.0114461
4 0.00106476
4.01 -0.00886306
4.02 -0.0182942
4.03 -0.0271662
4.04 -0.0353619
4.05 -0.0427986
4.06 -0.0494663
4.07 -0.0553047
4.08 -0.0602229
4.09 -0.0640818
4.1 -0.0669514
4.11 -0.0688001
4.12 -0.0696058
4.13 -0.0691923
4.14 -0.0677262
4.15 -0.0652283
4.16 -0.0617289
4.17 -0.0571653
4.18 -0.0516769
4.19 -0.0453759
4.2 -0.038345
4.21 -0.0306354
4.22 -0.0223682
4.23 -0.0137043
4.24 -0.00475874
4.25 0.00435194
4.26 0.0134914
4.27 0.0225262
4.28 0.0313429
4.29 0.0398337
4.3 0.0478159
4.31 0.0552571
4.32 0.0620814
4.33 0.0682244
4.34 0.0735432
4.35 0.0780558
4.36 0.0817754
4.37 0.0846997
4.38 0.0867809
4.39 0.0880529
4.4 0.0886227
4.41 0.0885465
4.42 0.0878712
4.43 0.0866473
4.44 0.0850278
4.45 0.0831031
4.46 0.0809668
4.47 0.0787097
4.48 0.0764545
4.49 0.0742909
4.5 0.0723037
4.51 0.0706102
4.52 0.0692686
4.53 0.0683253
4.54 0.0678268
4.55 0.0678492
4.56 0.0684172
4.57 0.0694998
4.58 0.0710926
4.59 0.0731993
4.6 0.0758232
4.61 0.0788667
4.62 0.0822822
4.63 0.0860152
4.64 0.0900346
4.65 0.094226
4.66 0.0985204
4.67 0.102848
4.68 0.107124
4.69 0.111275
4.7 0.115236
4.71 0.118947
4.72 0.122324
4.73 0.125307
4.74 0.127879
4.75 0.130004
4.76 0.131632
4.77 0.132699
4.78 0.133247
4.79 0.133266
4.8 0.132749
4.81 0.131615
4.82 0.129952
4.83 0.127767
4.84 0.125067
4.85 0.121802
4.86 0.118028
4.87 0.113771
4.88 0.109043
4.89 0.103812
4.9 0.0980913
4.91 0.091921
4.92 0.0853058
4.93 0.0782302
4.94 0.070667
4.95 0.062671
4.96 0.0542468
4.97 0.0453986
4.98 0.0360742
4.99 0.0263514
5 0.0162462
5.01 0.00577893
5.02 -0.0050636
5.03 -0.0162148
5.04 -0.0276256
5.05 -0.0392529
5.06 -0.0510579
5.07 -0.0629734
5.08 -0.0749279
5.09 -0.0868577
5.1 -0.0986882
5.11 -0.110326
5.12 -0.121713
5.13 -0.132779
5.14 -0.143451
5.15 -0.153585
5.16 -0.163181
5.17 -0.172183
5.18 -0.180539
5.19 -0.188114
5.2 -0.194931
5.21 -0.200989
5.22 -0.206268
5.23 -0.210694
5.24 -0.214279
5.25 -0.217091
5.26 -0.219151
5.27 -0.220452
5.28 -0.220989
5.29 -0.220882
5.3 -0.220175
5.31 -0.218911
5.32 -0.217074
5.33 -0.214794
5.34 -0.212118
5.35 -0.209092
5.36 -0.205724
5.37 -0.202087
5.38 -0.198221
5.39 -0.194153
5.4 -0.18989
5.41 -0.185451
5.42 -0.180856
5.43 -0.176108
5.44 -0.171195
5.45 -0.166099
5.46 -0.160826
5.47 -0.155361
5.48 -0.149689
5.49 -0.143758
5.5 -0.137587
5.51 -0.131164
5.52 -0.124478
5.53 -0.117488
5.54 -0.11022
5.55 -0.102687
5.56 -0.0948986
5.57 -0.0868512
5.58 -0.0785756
5.59 -0.0701163
5.6 -0.0615063
5.61 -0.0527794
5.62 -0.0439804
5.63 -0.0351654
5.64 -0.026381
5.65 -0.017676
5.66 -0.00912261
5.67 -0.000753232
5.68 0.00738846
5.69 0.0152617
5.7 0.0227848
5.71 0.0299524
5.72 0.0367471
5.73 0.0431474
5.74 0.0490982
5.75 0.054597
5.76 0.0596679
5.77 0.0643109
5.78 0.0685087
5.79 0.0722481
5.8 0.0755864
5.81 0.0785372
5.82 0.0811112
5.83 0.0832783
5.84 0.0851083
5.85 0.0866157
5.86 0.0878137
5.87 0.0886754
5.88 0.0892426
5.89 0.0895297
5.9 0.0895411
5.91 0.0892536
5.92 0.0886749
5.93 0.087822
5.94 0.0866933
5.95 0.0852719
5.96 0.0835421
5.97 0.081534
5.98 0.0792505
5.99 0.0766936
6 0.07384
6.01 0.0707432
6.02 0.0674216
6.03 0.0638982
6.04 0.0601817
6.05 0.0563285
6.06 0.0523805
6.07 0.0483789
6.08 0.0443712
6.09 0.0404133
6.1 0.0365528
6.11 0.0328378
6.12 0.0293284
6.13 0.0260892
6.14 0.0231393
6.15 0.0205146
6.16 0.0182517
6.17 0.0164268
6.18 0.0150022
6.19 0.0139851
6.2 0.0133748
6.21 0.0132143
6.22 0.013438
6.23 0.0140093
6.24 0.0148942
6.25 0.0160737
6.26 0.0174836
6.27 0.0190552
6.28 0.020734
6.29 0.0224631
6.3 0.0241747
6.31 0.0258097
6.32 0.0273153
6.33 0.0286386
6.34 0.0297006
6.35 0.0304923
6.36 0.0309838
6.37 0.0311527
6.38 0.0309366
6.39 0.0303682
6.4 0.0294583
6.41 0.0282176
6.42 0.0266354
6.43 0.0247521
6.44 0.0226179
6.45 0.0202679
6.46 0.0177326
6.47 0.0150542
6.48 0.0122914
6.49 0.00948522
6.5 0.00667607
6.51 0.00391112
6.52 0.00122234
6.53 -0.00136143
6.54 -0.00381582
6.55 -0.00609849
6.56 -0.00821162
6.57 -0.0101504
6.58 -0.0119115
6.59 -0.0134786
6.6 -0.0148647
6.61 -0.016089
6.62 -0.0171622
6.63 -0.0180887
6.64 -0.0188782
6.65 -0.019556
6.66 -0.0201327
6.67 -0.0206148
6.68 -0.020998
6.69 -0.0212964
6.7 -0.0215079
6.71 -0.0216265
6.72 -0.0216261
6.73 -0.0215033
6.74 -0.0212423
6.75 -0.0208226
6.76 -0.0202008
6.77 -0.0193557
6.78 -0.0182733
6.79 -0.0169293
6.8 -0.0152813
6.81 -0.013293
6.82 -0.0109757
6.83 -0.00831603
6.84 -0.00529729
6.85 -0.00187405
6.86 0.0019015
6.87 0.00602051
6.88 0.0104684
6.89 0.0152652
6.9 0.0203423
6.91 0.0256621
6.92 0.031188
6.93 0.0368922
6.94 0.0427159
6.95 0.0486043
6.96 0.0545105
6.97 0.0603826
6.98 0.0661627
6.99 0.0718106
7 0.0772845
7.01 0.0825397
7.02 0.0875074
7.03 0.0921881
7.04 0.0965563
7.05 0.100591
7.06 0.104222
7.07 0.107483
7.08 0.11037
7.09 0.112881
7.1 0.114976
7.11 0.116675
7.12 0.118006
7.13 0.118973
7.14 0.119561
7.15 0.119768
7.16 0.119635
7.17 0.119167
7.18 0.118362
7.19 0.117189
7.2 0.115693
7.21 0.113878
7.22 0.111742
7.23 0.109238
7.24 0.106407
7.25 0.103251
7.26 0.0997699
7.27 0.0959297
7.28 0.0917485
7.29 0.0872483
7.3 0.0824356
7.31 0.0773007
7.32 0.0718515
7.33 0.0661339
7.34 0.0601694
7.35 0.0539784
7.36 0.0475751
7.37 0.0410224
7.38 0.0343579
7.39 0.0276223
7.4 0.0208613
7.41 0.0141304
7.42 0.00747702
7.43 0.000949167
7.44 -0.00538126
7.45 -0.0114682
7.46 -0.0172756
7.47 -0.0227598
7.48 -0.0278525
7.49 -0.0324986
7.5 -0.0366995
7.51 -0.0404257
7.52 -0.0436378
7.53 -0.0462576
7.54 -0.0483372
7.55 -0.0498663
7.56 -0.0508388
7.57 -0.0511704
7.58 -0.0509407
7.59 -0.0501634
7.6 -0.0488492
7.61 -0.0469569
7.62 -0.0445366
7.63 -0.0416352
7.64 -0.0382751
7.65 -0.034453
7.66 -0.0301919
7.67 -0.0255596
7.68 -0.0205868
7.69 -0.0152973
7.7 -0.00970307
7.71 -0.00387878
7.72 0.00213851
7.73 0.00831039
7.74 0.0146079
7.75 0.0209683
7.76 0.0273474
7.77 0.0337012
7.78 0.0399713
7.79 0.0461083
7.8 0.0520694
7.81 0.0578082
7.82 0.0632558
7.83 0.0683518
7.84 0.0730773
7.85 0.0773902
7.86 0.0812356
7.87 0.0845226
7.88 0.0872787
7.89 0.0894753
7.9 0.0910886
7.91 0.0920056
7.92 0.0922971
7.93 0.0919609
7.94 0.0909944
7.95 0.0893311
7.96 0.0870208
7.97 0.0841078
7.98 0.0806106
7.99 0.076513
8 0.0718378
8.01 0.0666636
8.02 0.061022
8.03 0.054933
8.04 0.0483986
8.05 0.0415073
8.06 0.0342928
8.07 0.0267879
8.08 0.0189892
8.09 0.0109674
8.1 0.00275154
8.11 -0.00563309
8.12 -0.0141773
8.13 -0.0228471
8.14 -0.031617
8.15 -0.0404694
8.16 -0.0493913
8.17 -0.0583645
8.18 -0.0673677
8.19 -0.0763847
8.2 -0.0853977
8.21 -0.0943827
8.22 -0.10332
8.23 -0.112187
8.24 -0.120959
8.25 -0.129585
8.26 -0.13805
8.27 -0.146322
8.28 -0.154368
8.29 -0.162118
8.3 -0.169547
8.31 -0.176633
8.32 -0.183338
8.33 -0.189596
8.34 -0.195362
8.35 -0.200645
8.36 -0.20542
8.37 -0.209647
8.38 -0.213259
8.39 -0.216316
8.4 -0.218814
8.41 -0.220758
8.42 -0.222073
8.43 -0.22286
8.44 -0.223145
8.45 -0.222954
8.46 -0.222272
8.47 -0.221171
8.48 -0.21971
8.49 -0.217928
8.5 -0.215847
8.51 -0.213514
8.52 -0.210988
8.53 -0.208304
8.54 -0.205492
8.55 -0.202573
8.56 -0.199583
8.57 -0.196537
8.58 -0.193447
8.59 -0.19031
8.6 -0.18713
8.61 -0.183899
8.62 -0.180606
8.63 -0.177224
8.64 -0.173736
8.65 -0.170123
8.66 -0.166364
8.67 -0.162422
8.68 -0.158271
8.69 -0.153906
8.7 -0.149315
8.71 -0.144475
8.72 -0.139362
8.73 -0.134004
8.74 -0.128409
8.75 -0.122589
8.76 -0.116532
8.77 -0.110297
8.78 -0.103915
8.79 -0.0974168
8.8 -0.0908353
8.81 -0.0842207
8.82 -0.0776155
8.83 -0.0710587
8.84 -0.0645981
8.85 -0.0582754
8.86 -0.0521134
8.87 -0.046138
8.88 -0.0403782
8.89 -0.0348677
8.9 -0.0295868
8.91 -0.0245345
8.92 -0.0197035
8.93 -0.0151099
8.94 -0.0106972
8.95 -0.00643872
8.96 -0.00230379
8.97 0.0017353
8.98 0.00572795
8.99 0.00971465
9 0.013732
9.01 0.0178229
9.02 0.022025
9.03 0.0263591
9.04 0.0308465
9.05 0.03551
9.06 0.040373
9.07 0.045415
9.08 0.0506288
9.09 0.0560009
9.1 0.0615283
9.11 0.0671584
9.12 0.072858
9.13 0.0785897
9.14 0.0843067
9.15 0.0899604
9.16 0.0955081
9.17 0.100907
9.18 0.106099
9.19 0.111039
9.2 0.115711
9.21 0.120089
9.22 0.124136
9.23 0.127813
9.24 0.13115
9.25 0.134148
9.26 0.136813
9.27 0.139112
9.28 0.141114
9.29 0.142845
9.3 0.144332
9.31 0.145581
9.32 0.146648
9.33 0.14757
9.34 0.148376
9.35 0.14909
9.36 0.149738
9.37 0.150346
9.38 0.150926
9.39 0.151486
9.4 0.152025
9.41 0.15254
9.42 0.153021
9.43 0.153449
9.44 0.15379
9.45 0.154028
9.46 0.154134
9.47 0.154079
9.48 0.153806
9.49 0.153298
9.5 0.152537
9.51 0.1515
9.52 0.150141
9.53 0.148449
9.54 0.146439
9.55 0.144113
9.56 0.141464
9.57 0.138489
9.58 0.135247
9.59 0.131766
9.6 0.128079
9.61 0.124208
9.62 0.120225
9.63 0.116177
9.64 0.112112
9.65 0.108085
9.66 0.104147
9.67 0.10034
9.68 0.0967021
9.69 0.0932892
9.7 0.0901318
9.71 0.0872358
9.72 0.0846158
9.73 0.0822934
9.74 0.0802877
9.75 0.0785595
9.76 0.0770962
9.77 0.0758816
9.78 0.0749222
9.79 0.0741551
9.8 0.0735522
9.81 0.0730848
9.82 0.0727348
9.83 0.0724611
9.84 0.0722372
9.85 0.0720432
9.86 0.0718641
9.87 0.0716882
9.88 0.0715117
9.89 0.0713372
9.9 0.0711739
9.91 0.0710403
9.92 0.070955
9.93 0.0709418
9.94 0.0710292
9.95 0.0712696
9.96 0.0716775
9.97 0.0722831
9.98 0.0731151
9.99 0.0742354
10 0.0756431
10.01 0.0773465
10.02 0.0793553
10.03 0.0817006
10.04 0.0843702
10.05 0.0873292
10.06 0.0905568
10.07 0.0940353
10.08 0.0977348
10.09 0.101587
10.1 0.105543
10.11 0.109552
10.12 0.113548
10.13 0.117468
10.14 0.121254
10.15 0.124849
10.16 0.128158
10.17 0.13115
10.18 0.133783
10.19 0.13602
10.2 0.137781
10.21 0.139046
10.22 0.139827
10.23 0.140112
10.24 0.139871
10.25 0.139081
10.26 0.137806
10.27 0.136065
10.28 0.133873
10.29 0.131203
10.3 0.128151
10.31 0.124747
10.32 0.121024
10.33 0.11698
10.34 0.112681
10.35 0.108164
10.36 0.103455
10.37 0.0985652
10.38 0.0935219
10.39 0.0883518
10.4 0.0830675
10.41 0.0776725
10.42 0.0721685
10.43 0.0665689
10.44 0.0608744
10.45 0.0550831
10.46 0.0491804
10.47 0.043179
10.48 0.0370783
10.49 0.0308792
10.5 0.0245723
10.51 0.0181743
10.52 0.0116965
10.53 0.00515055
10.54 -0.00145211
10.55 -0.00808826
10.56 -0.0147333
10.57 -0.0213636
10.58 -0.0279497
10.59 -0.0344563
10.6 -0.0408605
10.61 -0.0471348
10.62 -0.0532498
10.63 -0.0591529
10.64 -0.0648458
10.65 -0.0703092
10.66 -0.0755274
10.67 -0.0804523
10.68 -0.0851045
10.69 -0.089488
10.7 -0.0936046
10.71 -0.0974358
10.72 -0.101002
10.73 -0.104334
10.74 -0.107448
10.75 -0.110352
10.76 -0.11306
10.77 -0.115614
10.78 -0.118033
10.79 -0.120334
10.8 -0.122523
10.81 -0.124629
10.82 -0.126663
10.83 -0.128631
10.84 -0.130527
10.85 -0.132357
10.86 -0.134116
10.87 -0.135795
10.88 -0.137369
10.89 -0.138823
10.9 -0.140145
10.91 -0.141314
10.92 -0.142298
10.93 -0.143065
10.94 -0.143615
10.95 -0.143928
10.96 -0.143987
10.97 -0.143747
10.98 -0.143236
10.99 -0.142454
11 -0.141402
11.01 -0.140054
11.02 -0.138456
11.03 -0.13663
11.04 -0.1346
11.05 -0.132376
11.06 -0.129999
11.07 -0.127514
11.08 -0.124952
11.09 -0.122348
11.1 -0.119742
11.11 -0.117169
11.12 -0.11466
11.13 -0.112245
11.14 -0.109966
11.15 -0.107828
11.16 -0.105846
11.17 -0.104031
11.18 -0.102413
11.19 -0.100971
11.2 -0.0996993
11.21 -0.0985882
11.22 -0.0976404
11.23 -0.0968321
11.24 -0.0961378
11.25 -0.0955391
11.26 -0.0950207
11.27 -0.0945624
11.28 -0.0941398
11.29 -0.0937371
11.3 -0.0933406
11.31 -0.0929374
11.32 -0.0925203
11.33 -0.0920857
11.34 -0.0916332
11.35 -0.0911645
11.36 -0.0906888
11.37 -0.0902161
11.38 -0.089758
11.39 -0.0893327
11.4 -0.0889561
11.41 -0.0886418
11.42 -0.0884045
11.43 -0.0882649
11.44 -0.0882407
11.45 -0.0883324
11.46 -0.0885469
11.47 -0.0888907
11.48 -0.0893782
11.49 -0.0899878
11.5 -0.0907119
11.51 -0.0915394
11.52 -0.0924665
11.53 -0.0934621
11.54 -0.0945049
11.55 -0.0955732
11.56 -0.0966421
11.57 -0.0976842
11.58 -0.0986768
11.59 -0.099598
11.6 -0.10042
11.61 -0.101119
11.62 -0.101689
11.63 -0.102119
11.64 -0.102396
11.65 -0.102497
11.66 -0.102445
11.67 -0.10224
11.68 -0.10189
11.69 -0.101385
11.7 -0.100756
11.71 -0.100019
11.72 -0.0991889
11.73 -0.0982749
11.74 -0.0972992
11.75 -0.0962807
11.76 -0.0952331
11.77 -0.0941678
11.78 -0.093096
11.79 -0.0920256
11.8 -0.0909605
11.81 -0.0899018
11.82 -0.0888474
11.83 -0.0877911
11.84 -0.0867252
11.85 -0.0856396
11.86 -0.0845165
11.87 -0.083345
11.88 -0.0821119
11.89 -0.0808034
11.9 -0.079395
11.91 -0.0778774
11.92 -0.0762449
11.93 -0.0744893
11.94 -0.0725955
11.95 -0.0705568
11.96 -0.0683856
11.97 -0.0660853
11.98 -0.0636587
11.99 -0.0611048
12 -0.0584517
12.01 -0.0557135
12.02 -0.0529058
12.03 -0.0500406
12.04 -0.0471448
12.05 -0.0442369
12.06 -0.041334
12.07 -0.0384564
12.08 -0.0356199
