[DEFAULT]

version = diffpy.pdfgetx-2.2.1

# input and output specifications
dataformat = twotheta
inputfile = Synthetic_CSH_CSH_pdf_ramp_900_03_normalized.chi
backgroundfiles = quartz_030degC_normalized.chi
outputtype = gr

# PDF calculation setup
mode = xray
wavelength = 0.2113
twothetazero = 0
composition = CaO SiO2
bgscales = 1.0
rpoly = 0.9
qmaxinst = 23.7031
qmin = 0.5
qmax = 20
rmin = 0
rmax = 60
rstep = 0.01

# End of config --------------------------------------------------------------

#### start data
#S 1
#L r(Å)  G(Å$^{-2}$)
0 0
0.01 -0.00187394
0.02 -0.00368555
0.03 -0.00538168
0.04 -0.00691214
0.05 -0.00820032
0.06 -0.00921775
0.07 -0.00994146
0.08 -0.0103474
0.09 -0.0103925
0.1 -0.010071
0.11 -0.00941565
0.12 -0.00844165
0.13 -0.00716298
0.14 -0.00560038
0.15 -0.00383242
0.16 -0.00191055
0.17 0.000107885
0.18 0.00215571
0.19 0.00415413
0.2 0.00603606
0.21 0.00773514
0.22 0.00914985
0.23 0.0102334
0.24 0.0109446
0.25 0.011241
0.26 0.0110514
0.27 0.0103549
0.28 0.00918297
0.29 0.00754531
0.3 0.00544904
0.31 0.00291246
0.32 4.46869e-05
0.33 -0.00308254
0.34 -0.00638502
0.35 -0.00976216
0.36 -0.0130818
0.37 -0.0162286
0.38 -0.0190827
0.39 -0.0214557
0.4 -0.0232447
0.41 -0.0243503
0.42 -0.0246652
0.43 -0.0240103
0.44 -0.0222955
0.45 -0.0195285
0.46 -0.015667
0.47 -0.0106404
0.48 -0.00437443
0.49 0.00296832
0.5 0.0113308
0.51 0.0206361
0.52 0.0308857
0.53 0.0418044
0.54 0.0532394
0.55 0.0650217
0.56 0.0769632
0.57 0.0888237
0.58 0.100396
0.59 0.111475
0.6 0.121782
0.61 0.131091
0.62 0.139276
0.63 0.14617
0.64 0.151555
0.65 0.15518
0.66 0.157121
0.67 0.157315
0.68 0.155714
0.69 0.152053
0.7 0.146641
0.71 0.139539
0.72 0.130838
0.73 0.12048
0.74 0.108768
0.75 0.0959128
0.76 0.0820917
0.77 0.0674435
0.78 0.0522136
0.79 0.036654
0.8 0.0209597
0.81 0.00533096
0.82 -0.0100086
0.83 -0.0249112
0.84 -0.0392359
0.85 -0.0528551
0.86 -0.0655408
0.87 -0.0773354
0.88 -0.0881932
0.89 -0.0980917
0.9 -0.10691
0.91 -0.114767
0.92 -0.12174
0.93 -0.127889
0.94 -0.133229
0.95 -0.137874
0.96 -0.141969
0.97 -0.145608
0.98 -0.148874
0.99 -0.151856
1 -0.154678
1.01 -0.157412
1.02 -0.160125
1.03 -0.162881
1.04 -0.165719
1.05 -0.168663
1.06 -0.171726
1.07 -0.174925
1.08 -0.178237
1.09 -0.181638
1.1 -0.185106
1.11 -0.188611
1.12 -0.192118
1.13 -0.195593
1.14 -0.199011
1.15 -0.202346
1.16 -0.205573
1.17 -0.208696
1.18 -0.211715
1.19 -0.214639
1.2 -0.217477
1.21 -0.220265
1.22 -0.223032
1.23 -0.22581
1.24 -0.228637
1.25 -0.231541
1.26 -0.234541
1.27 -0.23765
1.28 -0.240878
1.29 -0.244204
1.3 -0.247585
1.31 -0.250969
1.32 -0.254275
1.33 -0.257381
1.34 -0.260181
1.35 -0.262537
1.36 -0.264288
1.37 -0.265135
1.38 -0.264993
1.39 -0.263676
1.4 -0.261
1.41 -0.256553
1.42 -0.250305
1.43 -0.242147
1.44 -0.23195
1.45 -0.219406
1.46 -0.204496
1.47 -0.187346
1.48 -0.167977
1.49 -0.146349
1.5 -0.122495
1.51 -0.0968203
1.52 -0.0695466
1.53 -0.0409279
1.54 -0.0111958
1.55 0.0191064
1.56 0.0495883
1.57 0.0798348
1.58 0.109262
1.59 0.137436
1.6 0.16393
1.61 0.188311
1.62 0.209884
1.63 0.228265
1.64 0.243284
1.65 0.254643
1.66 0.261869
1.67 0.264544
1.68 0.262976
1.69 0.257124
1.7 0.246951
1.71 0.232037
1.72 0.213175
1.73 0.190611
1.74 0.164644
1.75 0.135267
1.76 0.103287
1.77 0.0692224
1.78 0.0335495
1.79 -0.00329539
1.8 -0.0406809
1.81 -0.0780432
1.82 -0.114897
1.83 -0.150696
1.84 -0.184864
1.85 -0.217129
1.86 -0.247153
1.87 -0.274601
1.88 -0.29886
1.89 -0.320142
1.9 -0.338345
1.91 -0.353424
1.92 -0.364966
1.93 -0.373406
1.94 -0.378936
1.95 -0.381714
1.96 -0.381705
1.97 -0.379262
1.98 -0.374784
1.99 -0.368521
2 -0.360653
2.01 -0.351415
2.02 -0.341187
2.03 -0.330179
2.04 -0.318569
2.05 -0.306482
2.06 -0.29411
2.07 -0.281537
2.08 -0.268811
2.09 -0.255927
2.1 -0.242879
2.11 -0.22962
2.12 -0.216077
2.13 -0.202114
2.14 -0.187623
2.15 -0.172519
2.16 -0.156695
2.17 -0.14
2.18 -0.122298
2.19 -0.103615
2.2 -0.0839204
2.21 -0.0631916
2.22 -0.0413517
2.23 -0.018621
2.24 0.00488603
2.25 0.0290186
2.26 0.0536219
2.27 0.078387
2.28 0.103049
2.29 0.127328
2.3 0.150824
2.31 0.173197
2.32 0.194174
2.33 0.213443
2.34 0.23056
2.35 0.245101
2.36 0.257021
2.37 0.266103
2.38 0.272096
2.39 0.274477
2.4 0.273595
2.41 0.269425
2.42 0.261993
2.43 0.250943
2.44 0.236828
2.45 0.219899
2.46 0.200395
2.47 0.178395
2.48 0.154378
2.49 0.128825
2.5 0.10211
2.51 0.0745971
2.52 0.0467402
2.53 0.0189947
2.54 -0.00826364
2.55 -0.0346494
2.56 -0.0596448
2.57 -0.0830898
2.58 -0.104734
2.59 -0.124371
2.6 -0.141511
2.61 -0.156312
2.62 -0.168764
2.63 -0.178869
2.64 -0.186447
2.65 -0.191729
2.66 -0.194994
2.67 -0.196431
2.68 -0.196169
2.69 -0.194463
2.7 -0.19173
2.71 -0.18825
2.72 -0.184303
2.73 -0.180195
2.74 -0.176248
2.75 -0.172711
2.76 -0.169811
2.77 -0.167893
2.78 -0.167029
2.79 -0.167324
2.8 -0.168859
2.81 -0.171808
2.82 -0.176097
2.83 -0.181601
2.84 -0.188225
2.85 -0.195897
2.86 -0.204442
2.87 -0.213569
2.88 -0.223059
2.89 -0.232669
2.9 -0.242092
2.91 -0.251063
2.92 -0.259328
2.93 -0.26664
2.94 -0.272557
2.95 -0.277
2.96 -0.279801
2.97 -0.280804
2.98 -0.279668
2.99 -0.2764
3 -0.27106
3.01 -0.263647
3.02 -0.254062
3.03 -0.242346
3.04 -0.228806
3.05 -0.213592
3.06 -0.196847
3.07 -0.178679
3.08 -0.159511
3.09 -0.13959
3.1 -0.11917
3.11 -0.0985155
3.12 -0.077951
3.13 -0.0577293
3.14 -0.0380886
3.15 -0.0193599
3.16 -0.001727
3.17 0.0146879
3.18 0.0297479
3.19 0.0432414
3.2 0.0550532
3.21 0.065292
3.22 0.0739647
3.23 0.0810699
3.24 0.0865496
3.25 0.0907146
3.26 0.0937034
3.27 0.0956775
3.28 0.0967227
3.29 0.0971789
3.3 0.0972641
3.31 0.0971926
3.32 0.0972092
3.33 0.0975545
3.34 0.0984207
3.35 0.0999903
3.36 0.1025
3.37 0.106137
3.38 0.11093
3.39 0.116963
3.4 0.12433
3.41 0.133187
3.42 0.143349
3.43 0.154773
3.44 0.167387
3.45 0.181239
3.46 0.196031
3.47 0.211603
3.48 0.227786
3.49 0.244425
3.5 0.261264
3.51 0.278085
3.52 0.294686
3.53 0.310822
3.54 0.32625
3.55 0.340831
3.56 0.354396
3.57 0.366752
3.58 0.37762
3.59 0.387047
3.6 0.394947
3.61 0.401259
3.62 0.405689
3.63 0.40846
3.64 0.409595
3.65 0.409124
3.66 0.406929
3.67 0.403191
3.68 0.398068
3.69 0.391656
3.7 0.383981
3.71 0.375162
3.72 0.365414
3.73 0.354852
3.74 0.34357
3.75 0.331639
3.76 0.319246
3.77 0.306483
3.78 0.293435
3.79 0.280151
3.8 0.266734
3.81 0.253234
3.82 0.239691
3.83 0.226138
3.84 0.2126
3.85 0.199089
3.86 0.185614
3.87 0.172179
3.88 0.158787
3.89 0.145434
3.9 0.13212
3.91 0.118852
3.92 0.105644
3.93 0.0925056
3.94 0.079458
3.95 0.0665301
3.96 0.0537892
3.97 0.041263
3.98 0.029005
3.99 0.017076
4 0.00559811
4.01 -0.005372
4.02 -0.0157748
4.03 -0.0255309
4.04 -0.0344983
4.05 -0.042577
4.06 -0.0497549
4.07 -0.0559633
4.08 -0.0611005
4.09 -0.0650118
4.1 -0.0677874
4.11 -0.0694002
4.12 -0.0698362
4.13 -0.0689123
4.14 -0.0668296
4.15 -0.0636251
4.16 -0.0593469
4.17 -0.0539473
4.18 -0.0475927
4.19 -0.0404173
4.2 -0.0325236
4.21 -0.0239854
4.22 -0.0149452
4.23 -0.00557651
4.24 0.00399198
4.25 0.0136283
4.26 0.0231773
4.27 0.0325113
4.28 0.0415136
4.29 0.0500754
4.3 0.0579975
4.31 0.0652699
4.32 0.0718223
4.33 0.0775975
4.34 0.0824517
4.35 0.0864202
4.36 0.0895296
4.37 0.0917873
4.38 0.0931522
4.39 0.0936686
4.4 0.0934553
4.41 0.0925754
4.42 0.0910811
4.43 0.0890275
4.44 0.0865721
4.45 0.0838069
4.46 0.0808261
4.47 0.0777191
4.48 0.0746076
4.49 0.071579
4.5 0.0687152
4.51 0.0661286
4.52 0.0638748
4.53 0.0619981
4.54 0.0605426
4.55 0.05958
4.56 0.059134
4.57 0.0591751
4.58 0.0596994
4.59 0.0607109
4.6 0.0622137
4.61 0.0641161
4.62 0.0663738
4.63 0.0689362
4.64 0.0717756
4.65 0.0747835
4.66 0.0778949
4.67 0.0810431
4.68 0.0841489
4.69 0.0871386
4.7 0.0899504
4.71 0.0925238
4.72 0.0947733
4.73 0.0966386
4.74 0.0980982
4.75 0.0991123
4.76 0.0996247
4.77 0.0995647
4.78 0.0989683
4.79 0.0978194
4.8 0.0961048
4.81 0.0937295
4.82 0.0907808
4.83 0.0872603
4.84 0.0831722
4.85 0.078455
4.86 0.0731674
4.87 0.0673399
4.88 0.0609835
4.89 0.0540674
4.9 0.0466104
4.91 0.0386644
4.92 0.0302427
4.93 0.0213393
4.94 0.0119404
4.95 0.00211527
4.96 -0.00811764
4.97 -0.0187397
4.98 -0.0297788
4.99 -0.0411485
5 -0.0528186
5.01 -0.0647546
5.02 -0.0769415
5.03 -0.0893087
5.04 -0.1018
5.05 -0.114364
5.06 -0.126939
5.07 -0.139453
5.08 -0.151842
5.09 -0.16404
5.1 -0.175963
5.11 -0.187507
5.12 -0.198638
5.13 -0.209287
5.14 -0.219387
5.15 -0.22878
5.16 -0.237497
5.17 -0.245491
5.18 -0.252719
5.19 -0.259043
5.2 -0.264507
5.21 -0.269124
5.22 -0.272887
5.23 -0.275724
5.24 -0.277661
5.25 -0.278781
5.26 -0.279113
5.27 -0.278659
5.28 -0.277421
5.29 -0.275532
5.3 -0.273041
5.31 -0.269998
5.32 -0.266396
5.33 -0.262369
5.34 -0.257969
5.35 -0.253247
5.36 -0.248217
5.37 -0.242953
5.38 -0.237498
5.39 -0.23188
5.4 -0.226112
5.41 -0.220213
5.42 -0.214201
5.43 -0.20808
5.44 -0.201839
5.45 -0.195462
5.46 -0.188951
5.47 -0.18229
5.48 -0.175461
5.49 -0.168419
5.5 -0.161176
5.51 -0.153716
5.52 -0.146031
5.53 -0.138081
5.54 -0.12989
5.55 -0.121469
5.56 -0.112827
5.57 -0.103966
5.58 -0.0949168
5.59 -0.0857228
5.6 -0.0764192
5.61 -0.0670445
5.62 -0.0576495
5.63 -0.0482884
5.64 -0.039011
5.65 -0.0298698
5.66 -0.0209489
5.67 -0.012275
5.68 -0.0038944
5.69 0.00415018
5.7 0.0117663
5.71 0.0189549
5.72 0.0257008
5.73 0.0319835
5.74 0.0377443
5.75 0.042986
5.76 0.0477415
5.77 0.0520163
5.78 0.0557974
5.79 0.059078
5.8 0.0619283
5.81 0.0643709
5.82 0.0664258
5.83 0.0680737
5.84 0.0693956
5.85 0.0704156
5.86 0.071156
5.87 0.0716052
5.88 0.0718099
5.89 0.0717906
5.9 0.0715574
5.91 0.0710987
5.92 0.0704243
5.93 0.0695486
5.94 0.0684704
5.95 0.0671758
5.96 0.0656499
5.97 0.0639117
5.98 0.0619591
5.99 0.0597892
6 0.0573776
6.01 0.0547627
6.02 0.0519557
6.03 0.0489721
6.04 0.0458145
6.05 0.0425297
6.06 0.0391526
6.07 0.035719
6.08 0.0322706
6.09 0.0288592
6.1 0.0255308
6.11 0.0223324
6.12 0.0193233
6.13 0.0165689
6.14 0.0140924
6.15 0.0119332
6.16 0.0101319
6.17 0.00877075
6.18 0.00781764
6.19 0.00728535
6.2 0.00717867
6.21 0.00754994
6.22 0.0083364
6.23 0.00950489
6.24 0.0110246
6.25 0.0128832
6.26 0.0150163
6.27 0.0173525
6.28 0.019836
6.29 0.0224091
6.3 0.0250013
6.31 0.0275443
6.32 0.0299795
6.33 0.032247
6.34 0.0342601
6.35 0.0359998
6.36 0.037428
6.37 0.0385138
6.38 0.0391821
6.39 0.0394597
6.4 0.0393516
6.41 0.0388621
6.42 0.0379695
6.43 0.0367117
6.44 0.0351401
6.45 0.0332883
6.46 0.0311834
6.47 0.0288667
6.48 0.0264065
6.49 0.023848
6.5 0.0212359
6.51 0.0186196
6.52 0.0160449
6.53 0.0135484
6.54 0.0111627
6.55 0.00893823
6.56 0.00688365
6.57 0.00501211
6.58 0.00333487
6.59 0.00187863
6.6 0.00063735
6.61 -0.00040407
6.62 -0.0012514
6.63 -0.00190213
6.64 -0.00236048
6.65 -0.00265507
6.66 -0.00279559
6.67 -0.00278788
6.68 -0.00262293
6.69 -0.00232437
6.7 -0.0018929
6.71 -0.0013261
6.72 -0.000597213
6.73 0.000287597
6.74 0.0013385
6.75 0.00257101
6.76 0.00402488
6.77 0.00571465
6.78 0.00764844
6.79 0.00984618
6.8 0.0123454
6.81 0.0151775
6.82 0.0183278
6.83 0.0218067
6.84 0.0256278
6.85 0.0298314
6.86 0.034366
6.87 0.0392213
6.88 0.0443815
6.89 0.0498624
6.9 0.0555978
6.91 0.0615505
6.92 0.0676839
6.93 0.0739681
6.94 0.080346
6.95 0.0867646
6.96 0.0931779
6.97 0.0995334
6.98 0.105774
6.99 0.111861
7 0.117755
7.01 0.123412
7.02 0.12876
7.03 0.133805
7.04 0.138521
7.05 0.142888
7.06 0.146835
7.07 0.150395
7.08 0.153567
7.09 0.156348
7.1 0.158696
7.11 0.160632
7.12 0.162181
7.13 0.16335
7.14 0.164118
7.15 0.164483
7.16 0.164484
7.17 0.164126
7.18 0.163403
7.19 0.162277
7.2 0.160798
7.21 0.158964
7.22 0.156772
7.23 0.154167
7.24 0.151192
7.25 0.14785
7.26 0.144137
7.27 0.140013
7.28 0.135498
7.29 0.130616
7.3 0.125374
7.31 0.119759
7.32 0.113779
7.33 0.107486
7.34 0.100905
7.35 0.0940565
7.36 0.0869549
7.37 0.0796721
7.38 0.0722496
7.39 0.0647323
7.4 0.0571685
7.41 0.0496215
7.42 0.042144
7.43 0.0347889
7.44 0.0276339
7.45 0.0207308
7.46 0.0141203
7.47 0.0078507
7.48 0.00199664
7.49 -0.00338104
7.5 -0.0082819
7.51 -0.012673
7.52 -0.01651
7.53 -0.0197068
7.54 -0.0223181
7.55 -0.0243309
7.56 -0.0257368
7.57 -0.0264415
7.58 -0.0265296
7.59 -0.026014
7.6 -0.024904
7.61 -0.0231511
7.62 -0.0208076
7.63 -0.0179229
7.64 -0.0145194
7.65 -0.0105896
7.66 -0.00615571
7.67 -0.00129206
7.68 0.00396956
7.69 0.00960487
7.7 0.0156048
7.71 0.0218845
7.72 0.0284033
7.73 0.0351188
7.74 0.0420022
7.75 0.0489796
7.76 0.0560005
7.77 0.0630144
7.78 0.0699566
7.79 0.0767682
7.8 0.0833983
7.81 0.0897923
7.82 0.0958714
7.83 0.101565
7.84 0.106848
7.85 0.11167
7.86 0.115968
7.87 0.119637
7.88 0.122705
7.89 0.125139
7.9 0.12691
7.91 0.127888
7.92 0.128153
7.93 0.127701
7.94 0.126531
7.95 0.124565
7.96 0.121861
7.97 0.118469
7.98 0.114411
7.99 0.10967
8 0.104271
8.01 0.0983066
8.02 0.0918118
8.03 0.0848112
8.04 0.0773082
8.05 0.0694038
8.06 0.0611371
8.07 0.0525461
8.08 0.0436283
8.09 0.0344635
8.1 0.025085
8.11 0.0155214
8.12 0.00578374
8.13 -0.00409013
8.14 -0.014072
8.15 -0.0241426
8.16 -0.0342877
8.17 -0.0444876
8.18 -0.0547198
8.19 -0.0649669
8.2 -0.0752103
8.21 -0.0854247
8.22 -0.0955894
8.23 -0.10568
8.24 -0.115671
8.25 -0.125509
8.26 -0.135177
8.27 -0.144642
8.28 -0.153869
8.29 -0.162783
8.3 -0.17136
8.31 -0.179574
8.32 -0.187389
8.33 -0.194734
8.34 -0.201563
8.35 -0.207888
8.36 -0.213682
8.37 -0.218907
8.38 -0.223496
8.39 -0.227513
8.4 -0.230959
8.41 -0.233839
8.42 -0.236083
8.43 -0.237799
8.44 -0.239016
8.45 -0.239764
8.46 -0.240036
8.47 -0.239907
8.48 -0.23944
8.49 -0.238677
8.5 -0.237646
8.51 -0.236394
8.52 -0.234981
8.53 -0.233441
8.54 -0.231802
8.55 -0.230087
8.56 -0.228323
8.57 -0.226522
8.58 -0.224687
8.59 -0.222811
8.6 -0.220887
8.61 -0.2189
8.62 -0.216831
8.63 -0.214637
8.64 -0.212297
8.65 -0.209784
8.66 -0.207069
8.67 -0.204102
8.68 -0.200851
8.69 -0.197312
8.7 -0.193467
8.71 -0.189291
8.72 -0.18475
8.73 -0.179883
8.74 -0.174701
8.75 -0.169219
8.76 -0.163418
8.77 -0.157376
8.78 -0.151129
8.79 -0.144715
8.8 -0.138171
8.81 -0.131557
8.82 -0.124926
8.83 -0.118322
8.84 -0.1118
8.85 -0.105406
8.86 -0.0991694
8.87 -0.093118
8.88 -0.087283
8.89 -0.0816982
8.9 -0.0763429
8.91 -0.0712138
8.92 -0.0663001
8.93 -0.0616114
8.94 -0.0570868
8.95 -0.052694
8.96 -0.0483961
8.97 -0.0441542
8.98 -0.0399146
8.99 -0.0356327
9 -0.0312669
9.01 -0.0267651
9.02 -0.0220863
9.03 -0.0172127
9.04 -0.0121225
9.05 -0.0067913
9.06 -0.00119423
9.07 0.00463682
9.08 0.0106896
9.09 0.0169441
9.1 0.0233945
9.11 0.0299732
9.12 0.0366382
9.13 0.0433431
9.14 0.0500305
9.15 0.0566419
9.16 0.0631263
9.17 0.0694338
9.18 0.0754946
9.19 0.0812592
9.2 0.0867097
9.21 0.0918166
9.22 0.0965409
9.23 0.100838
9.24 0.104748
9.25 0.108273
9.26 0.111423
9.27 0.114164
9.28 0.11658
9.29 0.118701
9.3 0.12056
9.31 0.12217
9.32 0.123592
9.33 0.124872
9.34 0.126042
9.35 0.12713
9.36 0.128166
9.37 0.129176
9.38 0.130171
9.39 0.131159
9.4 0.132137
9.41 0.133095
9.42 0.134019
9.43 0.134885
9.44 0.13565
9.45 0.136292
9.46 0.136775
9.47 0.137065
9.48 0.137091
9.49 0.136835
9.5 0.136276
9.51 0.135386
9.52 0.134113
9.53 0.132445
9.54 0.130404
9.55 0.127991
9.56 0.125203
9.57 0.122039
9.58 0.118568
9.59 0.114826
9.6 0.110854
9.61 0.106681
9.62 0.102391
9.63 0.0980395
9.64 0.0936818
9.65 0.0893858
9.66 0.0852074
9.67 0.0811933
9.68 0.0773874
9.69 0.073852
9.7 0.0706197
9.71 0.0676935
9.72 0.0650869
9.73 0.062821
9.74 0.0609131
9.75 0.0593143
9.76 0.0580062
9.77 0.0569666
9.78 0.0561956
9.79 0.0556204
9.8 0.055206
9.81 0.054917
9.82 0.0547262
9.83 0.0545881
9.84 0.0544726
9.85 0.0543565
9.86 0.0542197
9.87 0.0540508
9.88 0.0538488
9.89 0.0536186
9.9 0.0533716
9.91 0.0531299
9.92 0.0529205
9.93 0.0527734
9.94 0.0527234
9.95 0.0528314
9.96 0.0531192
9.97 0.0536233
9.98 0.0543787
9.99 0.0554574
10 0.0568608
10.01 0.0585994
10.02 0.0606856
10.03 0.0631555
10.04 0.0659959
10.05 0.0691672
10.06 0.072646
10.07 0.0764127
10.08 0.0804331
10.09 0.0846295
10.1 0.0889478
10.11 0.0933292
10.12 0.0977014
10.13 0.101993
10.14 0.106139
10.15 0.110078
10.16 0.113705
10.17 0.116984
10.18 0.119875
10.19 0.122334
10.2 0.124279
10.21 0.12569
10.22 0.126581
10.23 0.126944
10.24 0.126749
10.25 0.125978
10.26 0.124703
10.27 0.122945
10.28 0.120728
10.29 0.118031
10.3 0.114956
10.31 0.11154
10.32 0.10782
10.33 0.103805
10.34 0.0995637
10.35 0.0951357
10.36 0.0905515
10.37 0.0858278
10.38 0.0809944
10.39 0.0760765
10.4 0.0710875
10.41 0.0660336
10.42 0.0609181
10.43 0.0557494
10.44 0.050527
10.45 0.0452481
10.46 0.0399017
10.47 0.0344933
10.48 0.0290208
10.49 0.0234838
10.5 0.0178757
10.51 0.0122087
10.52 0.00649226
10.53 0.000737279
10.54 -0.00504277
10.55 -0.0108262
10.56 -0.0165909
10.57 -0.0223138
10.58 -0.027965
10.59 -0.0335088
10.6 -0.0389264
10.61 -0.0441921
10.62 -0.0492777
10.63 -0.0541315
10.64 -0.0587606
10.65 -0.063149
10.66 -0.0672845
10.67 -0.0711231
10.68 -0.0746907
10.69 -0.0779956
10.7 -0.0810443
10.71 -0.0838247
10.72 -0.0863621
10.73 -0.0886898
10.74 -0.090828
10.75 -0.0927901
10.76 -0.0945961
10.77 -0.0962849
10.78 -0.0978773
10.79 -0.0993916
10.8 -0.100839
10.81 -0.102242
10.82 -0.103609
10.83 -0.104945
10.84 -0.106244
10.85 -0.107505
10.86 -0.108718
10.87 -0.109871
10.88 -0.110936
10.89 -0.111894
10.9 -0.112727
10.91 -0.113412
10.92 -0.113915
10.93 -0.114201
10.94 -0.114268
10.95 -0.114098
10.96 -0.113672
10.97 -0.112948
10.98 -0.111956
10.99 -0.110699
11 -0.109182
11.01 -0.107383
11.02 -0.105353
11.03 -0.103119
11.04 -0.100707
11.05 -0.0981374
11.06 -0.0954548
11.07 -0.0927034
11.08 -0.0899199
11.09 -0.0871432
11.1 -0.084417
11.11 -0.0817727
11.12 -0.0792405
11.13 -0.07685
11.14 -0.0746456
11.15 -0.0726229
11.16 -0.0707926
11.17 -0.0691605
11.18 -0.0677545
11.19 -0.0665442
11.2 -0.0655154
11.21 -0.0646536
11.22 -0.0639539
11.23 -0.0633855
11.24 -0.0629169
11.25 -0.0625246
11.26 -0.0621868
11.27 -0.0618776
11.28 -0.0615719
11.29 -0.0612516
11.3 -0.0609009
11.31 -0.0605021
11.32 -0.0600532
11.33 -0.0595518
11.34 -0.0589993
11.35 -0.0583957
11.36 -0.0577575
11.37 -0.0570983
11.38 -0.0564334
11.39 -0.055783
11.4 -0.0551684
11.41 -0.0546074
11.42 -0.054118
11.43 -0.053724
11.44 -0.0534463
11.45 -0.0532877
11.46 -0.0532568
11.47 -0.0533618
11.48 -0.053619
11.49 -0.0540064
11.5 -0.0545165
11.51 -0.0551381
11.52 -0.0558683
11.53 -0.0566745
11.54 -0.0575345
11.55 -0.0584262
11.56 -0.0593246
11.57 -0.0602018
11.58 -0.0610343
11.59 -0.0618002
11.6 -0.0624727
11.61 -0.0630276
11.62 -0.0634595
11.63 -0.0637574
11.64 -0.0639104
11.65 -0.0638981
11.66 -0.0637407
11.67 -0.0634421
11.68 -0.0630094
11.69 -0.062436
11.7 -0.0617522
11.71 -0.0609741
11.72 -0.0601169
11.73 -0.0591915
11.74 -0.0582193
11.75 -0.0572182
11.76 -0.0562016
11.77 -0.0551814
11.78 -0.0541685
11.79 -0.0531691
11.8 -0.0521867
11.81 -0.0512227
11.82 -0.0502762
11.83 -0.0493397
11.84 -0.0484062
11.85 -0.0474667
11.86 -0.0465068
11.87 -0.0455158
11.88 -0.0444824
11.89 -0.043395
11.9 -0.0422347
11.91 -0.0409941
11.92 -0.0396693
11.93 -0.0382547
11.94 -0.0367407
11.95 -0.0351244
11.96 -0.033417
11.97 -0.0316234
11.98 -0.0297488
11.99 -0.0277971
12 -0.0257901
12.01 -0.0237407
12.02 -0.0216624
12.03 -0.0195693
12.04 -0.0174793
12.05 -0.0154057
12.06 -0.0133607
12.07 -0.0113604
12.08 -0.00941234
