[DEFAULT]

version = diffpy.pdfgetx-2.2.1

# input and output specifications
dataformat = twotheta
inputfile = Synthetic_CSH_CSH_pdf_ramp_500_06_normalized.chi
backgroundfiles = quartz_030degC_normalized.chi
outputtype = gr

# PDF calculation setup
mode = xray
wavelength = 0.2113
twothetazero = 0
composition = CaO SiO2
bgscales = 1.0
rpoly = 0.9
qmaxinst = 23.7031
qmin = 0.5
qmax = 20
rmin = 0
rmax = 60
rstep = 0.01

# End of config --------------------------------------------------------------

#### start data
#S 1
#L r(Å)  G(Å$^{-2}$)
0 0
0.01 -0.00225804
0.02 -0.00443691
0.03 -0.00646935
0.04 -0.00829214
0.05 -0.0098094
0.06 -0.0109868
0.07 -0.0117975
0.08 -0.0122139
0.09 -0.0121863
0.1 -0.0117123
0.11 -0.0108366
0.12 -0.00958299
0.13 -0.00797467
0.14 -0.00604476
0.15 -0.00389168
0.16 -0.00158201
0.17 0.000811542
0.18 0.00320029
0.19 0.0054946
0.2 0.00761557
0.21 0.00948712
0.22 0.0109911
0.23 0.0120826
0.24 0.0127234
0.25 0.0128741
0.26 0.0124651
0.27 0.0114877
0.28 0.00999151
0.29 0.00800161
0.3 0.00554233
0.31 0.00265385
0.32 -0.000535492
0.33 -0.00393613
0.34 -0.00744704
0.35 -0.0109389
0.36 -0.0142794
0.37 -0.0173461
0.38 -0.0200155
0.39 -0.0220881
0.4 -0.0234774
0.41 -0.0240998
0.42 -0.0238641
0.43 -0.0226104
0.44 -0.0202791
0.45 -0.0169098
0.46 -0.0124911
0.47 -0.00698985
0.48 -0.000378045
0.49 0.00716012
0.5 0.0155385
0.51 0.0246532
0.52 0.0344475
0.53 0.0446648
0.54 0.0551452
0.55 0.0657188
0.56 0.0761763
0.57 0.0863187
0.58 0.0959733
0.59 0.104969
0.6 0.113061
0.61 0.120082
0.62 0.125969
0.63 0.130614
0.64 0.133866
0.65 0.135558
0.66 0.135812
0.67 0.134622
0.68 0.131994
0.69 0.127772
0.7 0.122241
0.71 0.115489
0.72 0.107618
0.73 0.0986309
0.74 0.0887691
0.75 0.0781994
0.76 0.0670582
0.77 0.0554556
0.78 0.043554
0.79 0.0315054
0.8 0.0194214
0.81 0.00740949
0.82 -0.00442127
0.83 -0.0160144
0.84 -0.0273189
0.85 -0.0382956
0.86 -0.0488708
0.87 -0.0590902
0.88 -0.0689596
0.89 -0.078493
0.9 -0.0876736
0.91 -0.0965601
0.92 -0.105188
0.93 -0.113579
0.94 -0.121736
0.95 -0.129674
0.96 -0.137411
0.97 -0.144937
0.98 -0.152222
0.99 -0.159212
1 -0.165892
1.01 -0.172211
1.02 -0.178107
1.03 -0.18344
1.04 -0.188211
1.05 -0.192358
1.06 -0.195822
1.07 -0.198453
1.08 -0.200283
1.09 -0.201315
1.1 -0.201545
1.11 -0.200923
1.12 -0.199513
1.13 -0.197435
1.14 -0.194776
1.15 -0.191626
1.16 -0.188117
1.17 -0.184445
1.18 -0.18077
1.19 -0.17726
1.2 -0.17416
1.21 -0.171606
1.22 -0.169753
1.23 -0.168744
1.24 -0.168843
1.25 -0.170056
1.26 -0.17241
1.27 -0.175927
1.28 -0.18069
1.29 -0.186595
1.3 -0.193452
1.31 -0.201103
1.32 -0.209373
1.33 -0.217999
1.34 -0.226645
1.35 -0.235007
1.36 -0.242749
1.37 -0.24935
1.38 -0.254569
1.39 -0.258073
1.4 -0.259539
1.41 -0.258325
1.42 -0.254384
1.43 -0.247575
1.44 -0.237739
1.45 -0.224482
1.46 -0.207855
1.47 -0.18812
1.48 -0.165399
1.49 -0.139745
1.5 -0.111342
1.51 -0.0808271
1.52 -0.048602
1.53 -0.0151102
1.54 0.0191638
1.55 0.0535135
1.56 0.0873777
1.57 0.120186
1.58 0.151077
1.59 0.179599
1.6 0.20528
1.61 0.227644
1.62 0.245875
1.63 0.259662
1.64 0.268986
1.65 0.273648
1.66 0.273271
1.67 0.267591
1.68 0.257192
1.69 0.242237
1.7 0.222904
1.71 0.199051
1.72 0.171692
1.73 0.141279
1.74 0.108311
1.75 0.0731199
1.76 0.0365642
1.77 -0.000744772
1.78 -0.0382486
1.79 -0.0753201
1.8 -0.111368
1.81 -0.145959
1.82 -0.178679
1.83 -0.209027
1.84 -0.23654
1.85 -0.261249
1.86 -0.28301
1.87 -0.301693
1.88 -0.31691
1.89 -0.329164
1.9 -0.338577
1.91 -0.345317
1.92 -0.349287
1.93 -0.351047
1.94 -0.350917
1.95 -0.349173
1.96 -0.345987
1.97 -0.341717
1.98 -0.336687
1.99 -0.331109
2 -0.325156
2.01 -0.31898
2.02 -0.312705
2.03 -0.306374
2.04 -0.299989
2.05 -0.293484
2.06 -0.286774
2.07 -0.279734
2.08 -0.27221
2.09 -0.263911
2.1 -0.254695
2.11 -0.244384
2.12 -0.232784
2.13 -0.219557
2.14 -0.204576
2.15 -0.187813
2.16 -0.169185
2.17 -0.148535
2.18 -0.125796
2.19 -0.10123
2.2 -0.0749536
2.21 -0.047108
2.22 -0.0177925
2.23 0.0125083
2.24 0.0434809
2.25 0.0747783
2.26 0.105964
2.27 0.136595
2.28 0.166266
2.29 0.194572
2.3 0.220898
2.31 0.244873
2.32 0.26626
2.33 0.284751
2.34 0.299868
2.35 0.31123
2.36 0.319005
2.37 0.323097
2.38 0.323392
2.39 0.31949
2.4 0.312005
2.41 0.301091
2.42 0.286952
2.43 0.269457
2.44 0.249316
2.45 0.22692
2.46 0.202633
2.47 0.176726
2.48 0.149733
2.49 0.122135
2.5 0.0943258
2.51 0.0667203
2.52 0.0397653
2.53 0.0137638
2.54 -0.0109872
2.55 -0.0341851
2.56 -0.055376
2.57 -0.0746068
2.58 -0.0917496
2.59 -0.106718
2.6 -0.119149
2.61 -0.129327
2.62 -0.137333
2.63 -0.143247
2.64 -0.146987
2.65 -0.148812
2.66 -0.148996
2.67 -0.147723
2.68 -0.14512
2.69 -0.141397
2.7 -0.136878
2.71 -0.131771
2.72 -0.126273
2.73 -0.12059
2.74 -0.114947
2.75 -0.109509
2.76 -0.104428
2.77 -0.0999241
2.78 -0.0960577
2.79 -0.0929097
2.8 -0.0905481
2.81 -0.0891124
2.82 -0.0885894
2.83 -0.0889353
2.84 -0.0901345
2.85 -0.0922039
2.86 -0.0951035
2.87 -0.098687
2.88 -0.102872
2.89 -0.107573
2.9 -0.112711
2.91 -0.118105
2.92 -0.123634
2.93 -0.129171
2.94 -0.134553
2.95 -0.13965
2.96 -0.144337
2.97 -0.148494
2.98 -0.151922
2.99 -0.154531
3 -0.156262
3.01 -0.157034
3.02 -0.156704
3.03 -0.155182
3.04 -0.152533
3.05 -0.148743
3.06 -0.143784
3.07 -0.137566
3.08 -0.130286
3.09 -0.122006
3.1 -0.112805
3.11 -0.10267
3.12 -0.0918397
3.13 -0.0804452
3.14 -0.0686182
3.15 -0.0564793
3.16 -0.0442099
3.17 -0.0319635
3.18 -0.0198762
3.19 -0.00810576
3.2 0.00319765
3.21 0.0139605
3.22 0.0240959
3.23 0.0335126
3.24 0.0420789
3.25 0.0498653
3.26 0.0568703
3.27 0.063113
3.28 0.0685341
3.29 0.0733052
3.3 0.0775165
3.31 0.0812657
3.32 0.0846371
3.33 0.0877926
3.34 0.0908748
3.35 0.094011
3.36 0.0973475
3.37 0.101031
3.38 0.105148
3.39 0.109789
3.4 0.115051
3.41 0.121058
3.42 0.127759
3.43 0.135157
3.44 0.143233
3.45 0.152031
3.46 0.161382
3.47 0.171186
3.48 0.181331
3.49 0.191695
3.5 0.202097
3.51 0.212373
3.52 0.222365
3.53 0.231868
3.54 0.240685
3.55 0.248712
3.56 0.255814
3.57 0.261835
3.58 0.266549
3.59 0.270021
3.6 0.272201
3.61 0.273064
3.62 0.272413
3.63 0.270471
3.64 0.267306
3.65 0.262994
3.66 0.25753
3.67 0.25112
3.68 0.243945
3.69 0.236148
3.7 0.227853
3.71 0.219235
3.72 0.210479
3.73 0.201725
3.74 0.193109
3.75 0.184787
3.76 0.176834
3.77 0.169323
3.78 0.162311
3.79 0.155916
3.8 0.150069
3.81 0.144754
3.82 0.139939
3.83 0.135619
3.84 0.131687
3.85 0.128044
3.86 0.124602
3.87 0.121273
3.88 0.117945
3.89 0.114523
3.9 0.110925
3.91 0.107068
3.92 0.102857
3.93 0.0982849
3.94 0.0933301
3.95 0.0879878
3.96 0.0822194
3.97 0.0761231
3.98 0.0697577
3.99 0.0631967
4 0.0565284
4.01 0.0498802
4.02 0.0433695
4.03 0.0371159
4.04 0.0312803
4.05 0.0260121
4.06 0.0213931
4.07 0.0175306
4.08 0.0145558
4.09 0.0126445
4.1 0.0117491
4.11 0.011912
4.12 0.0131555
4.13 0.015649
4.14 0.0191991
4.15 0.0237565
4.16 0.0292559
4.17 0.0357031
4.18 0.0429151
4.19 0.0507386
4.2 0.0590462
4.21 0.0677183
4.22 0.0765866
4.23 0.0854836
4.24 0.0942699
4.25 0.102797
4.26 0.110885
4.27 0.118457
4.28 0.12541
4.29 0.13166
4.3 0.137003
4.31 0.141504
4.32 0.14513
4.33 0.147865
4.34 0.1496
4.35 0.150425
4.36 0.150406
4.37 0.149584
4.38 0.147955
4.39 0.145593
4.4 0.142621
4.41 0.139109
4.42 0.135114
4.43 0.130685
4.44 0.125944
4.45 0.120956
4.46 0.115778
4.47 0.11045
4.48 0.105045
4.49 0.0995993
4.5 0.0941452
4.51 0.0887111
4.52 0.0833155
4.53 0.0779685
4.54 0.0726762
4.55 0.0674452
4.56 0.0622738
4.57 0.0571537
4.58 0.0520799
4.59 0.0470484
4.6 0.0420559
4.61 0.0370937
4.62 0.0321589
4.63 0.0272501
4.64 0.0223721
4.65 0.0175228
4.66 0.0127056
4.67 0.00792485
4.68 0.00319097
4.69 -0.00149404
4.7 -0.00612776
4.71 -0.0107073
4.72 -0.0152269
4.73 -0.0196883
4.74 -0.0241
4.75 -0.0284686
4.76 -0.032803
4.77 -0.0371166
4.78 -0.0414289
4.79 -0.0457578
4.8 -0.0501233
4.81 -0.0545585
4.82 -0.0590783
4.83 -0.0637037
4.84 -0.0684544
4.85 -0.0733679
4.86 -0.0784482
4.87 -0.0837003
4.88 -0.0891299
4.89 -0.0947526
4.9 -0.100561
4.91 -0.106529
4.92 -0.112639
4.93 -0.118873
4.94 -0.125201
4.95 -0.131577
4.96 -0.13796
4.97 -0.144307
4.98 -0.150553
4.99 -0.156658
5 -0.162573
5.01 -0.16825
5.02 -0.173601
5.03 -0.178602
5.04 -0.183224
5.05 -0.18743
5.06 -0.191151
5.07 -0.194362
5.08 -0.19708
5.09 -0.199293
5.1 -0.200974
5.11 -0.202089
5.12 -0.202706
5.13 -0.20284
5.14 -0.202504
5.15 -0.201662
5.16 -0.200409
5.17 -0.198777
5.18 -0.196795
5.19 -0.194458
5.2 -0.191832
5.21 -0.18896
5.22 -0.185869
5.23 -0.182573
5.24 -0.179106
5.25 -0.175501
5.26 -0.171779
5.27 -0.167953
5.28 -0.164034
5.29 -0.160044
5.3 -0.155993
5.31 -0.151888
5.32 -0.147731
5.33 -0.143536
5.34 -0.139309
5.35 -0.135057
5.36 -0.130786
5.37 -0.126507
5.38 -0.12223
5.39 -0.117968
5.4 -0.113735
5.41 -0.109549
5.42 -0.105423
5.43 -0.101374
5.44 -0.0974242
5.45 -0.0936
5.46 -0.0899071
5.47 -0.0863609
5.48 -0.0829766
5.49 -0.0797917
5.5 -0.0767895
5.51 -0.0739752
5.52 -0.0713503
5.53 -0.0689363
5.54 -0.0667071
5.55 -0.0646461
5.56 -0.0627386
5.57 -0.060977
5.58 -0.0593326
5.59 -0.0577717
5.6 -0.0562678
5.61 -0.0547931
5.62 -0.0533141
5.63 -0.0518003
5.64 -0.0502249
5.65 -0.048562
5.66 -0.0467712
5.67 -0.0448486
5.68 -0.0427806
5.69 -0.040558
5.7 -0.0381556
5.71 -0.0355918
5.72 -0.0328788
5.73 -0.0300292
5.74 -0.0270515
5.75 -0.0239755
5.76 -0.0208364
5.77 -0.0176643
5.78 -0.014494
5.79 -0.0113686
5.8 -0.00832272
5.81 -0.00539164
5.82 -0.00261173
5.83 -4.45373e-05
5.84 0.00230494
5.85 0.00441209
5.86 0.00625659
5.87 0.0077845
5.88 0.00901469
5.89 0.00995183
5.9 0.0105985
5.91 0.0109379
5.92 0.0109947
5.93 0.010808
5.94 0.0104026
5.95 0.00979889
5.96 0.00902736
5.97 0.00814306
5.98 0.00718326
5.99 0.00618619
6 0.00519664
6.01 0.00425596
6.02 0.00340001
6.03 0.00266251
6.04 0.00209837
6.05 0.00172228
6.06 0.00155319
6.07 0.00161011
6.08 0.00193191
6.09 0.00252347
6.1 0.00337423
6.11 0.00448572
6.12 0.00586985
6.13 0.00753236
6.14 0.00943709
6.15 0.0115727
6.16 0.0139291
6.17 0.0165155
6.18 0.0192852
6.19 0.0222225
6.2 0.0253116
6.21 0.0285539
6.22 0.0319177
6.23 0.035387
6.24 0.0389499
6.25 0.0426031
6.26 0.0463335
6.27 0.0501283
6.28 0.0539814
6.29 0.0578901
6.3 0.0618511
6.31 0.0658549
6.32 0.0698972
6.33 0.073974
6.34 0.0780829
6.35 0.0822128
6.36 0.0863562
6.37 0.090504
6.38 0.0946432
6.39 0.0987602
6.4 0.102841
6.41 0.106869
6.42 0.110818
6.43 0.114668
6.44 0.118403
6.45 0.122003
6.46 0.125435
6.47 0.128668
6.48 0.131696
6.49 0.134501
6.5 0.137061
6.51 0.139326
6.52 0.141319
6.53 0.143029
6.54 0.144451
6.55 0.145541
6.56 0.146334
6.57 0.146842
6.58 0.147072
6.59 0.147012
6.6 0.146689
6.61 0.146139
6.62 0.145382
6.63 0.144431
6.64 0.143308
6.65 0.142056
6.66 0.1407
6.67 0.139262
6.68 0.137763
6.69 0.136235
6.7 0.134694
6.71 0.133158
6.72 0.131641
6.73 0.130152
6.74 0.128695
6.75 0.12727
6.76 0.125877
6.77 0.124505
6.78 0.123144
6.79 0.121778
6.8 0.120391
6.81 0.118959
6.82 0.117467
6.83 0.115895
6.84 0.114222
6.85 0.112415
6.86 0.110471
6.87 0.10838
6.88 0.106131
6.89 0.103696
6.9 0.101093
6.91 0.0983299
6.92 0.0954144
6.93 0.0923471
6.94 0.0891553
6.95 0.0858694
6.96 0.0825155
6.97 0.079122
6.98 0.0757264
6.99 0.0723652
7 0.0690721
7.01 0.0658838
7.02 0.0628529
7.03 0.0599936
7.04 0.0573322
7.05 0.0548907
7.06 0.0527227
7.07 0.0508105
7.08 0.049155
7.09 0.0477546
7.1 0.0466262
7.11 0.0457404
7.12 0.0450618
7.13 0.0445632
7.14 0.0442199
7.15 0.0439913
7.16 0.0438236
7.17 0.0436741
7.18 0.0434974
7.19 0.0432346
7.2 0.0428485
7.21 0.0422996
7.22 0.0415516
7.23 0.0405352
7.24 0.0392516
7.25 0.037686
7.26 0.0358263
7.27 0.0336361
7.28 0.0311347
7.29 0.0283499
7.3 0.0252999
7.31 0.0219956
7.32 0.018468
7.33 0.0147759
7.34 0.0109594
7.35 0.00706049
7.36 0.00312737
7.37 -0.00078586
7.38 -0.00463566
7.39 -0.00838069
7.4 -0.0119568
7.41 -0.0153459
7.42 -0.018523
7.43 -0.0214667
7.44 -0.0241345
7.45 -0.0265315
7.46 -0.0286713
7.47 -0.0305607
7.48 -0.0321978
7.49 -0.0336
7.5 -0.0348135
7.51 -0.0358665
7.52 -0.0367873
7.53 -0.0376038
7.54 -0.0383652
7.55 -0.0391035
7.56 -0.0398489
7.57 -0.0406371
7.58 -0.0414889
7.59 -0.042421
7.6 -0.0434454
7.61 -0.0445793
7.62 -0.0458165
7.63 -0.0471446
7.64 -0.048551
7.65 -0.0500208
7.66 -0.0515276
7.67 -0.0530396
7.68 -0.0545278
7.69 -0.0559591
7.7 -0.0572888
7.71 -0.0584955
7.72 -0.0595519
7.73 -0.0604337
7.74 -0.0610893
7.75 -0.0615298
7.76 -0.0617496
7.77 -0.0617467
7.78 -0.0615028
7.79 -0.0610449
7.8 -0.0604024
7.81 -0.0595996
7.82 -0.0586589
7.83 -0.0576186
7.84 -0.0565271
7.85 -0.0554231
7.86 -0.054348
7.87 -0.0533535
7.88 -0.0524707
7.89 -0.0517323
7.9 -0.0511667
7.91 -0.0508292
7.92 -0.0507097
7.93 -0.0508146
7.94 -0.0511453
7.95 -0.0517191
7.96 -0.0525057
7.97 -0.0534729
7.98 -0.0545935
7.99 -0.0558409
8 -0.0571721
8.01 -0.0585369
8.02 -0.0598936
8.03 -0.0611976
8.04 -0.0623931
8.05 -0.0634506
8.06 -0.0643373
8.07 -0.0650252
8.08 -0.0654561
8.09 -0.0656467
8.1 -0.0655928
8.11 -0.0652962
8.12 -0.0647416
8.13 -0.0639652
8.14 -0.0630033
8.15 -0.0618868
8.16 -0.0606463
8.17 -0.059329
8.18 -0.0579873
8.19 -0.0566649
8.2 -0.0554083
8.21 -0.0542752
8.22 -0.0532929
8.23 -0.0524929
8.24 -0.0519013
8.25 -0.0515744
8.26 -0.0514897
8.27 -0.0516473
8.28 -0.0520407
8.29 -0.0526784
8.3 -0.0535178
8.31 -0.0545183
8.32 -0.0556431
8.33 -0.0568536
8.34 -0.0580956
8.35 -0.0593154
8.36 -0.0604652
8.37 -0.0614924
8.38 -0.0623312
8.39 -0.0629585
8.4 -0.0633409
8.41 -0.0634509
8.42 -0.0632209
8.43 -0.0626833
8.44 -0.0618378
8.45 -0.0606908
8.46 -0.0592263
8.47 -0.057492
8.48 -0.0555313
8.49 -0.0533809
8.5 -0.0510738
8.51 -0.0486631
8.52 -0.046207
8.53 -0.0437523
8.54 -0.0413476
8.55 -0.0390506
8.56 -0.0368917
8.57 -0.034903
8.58 -0.0331108
8.59 -0.0315703
8.6 -0.03026
8.61 -0.0291814
8.62 -0.0283295
8.63 -0.0277153
8.64 -0.0272997
8.65 -0.0270477
8.66 -0.026929
8.67 -0.0269148
8.68 -0.0269619
8.69 -0.0270262
8.7 -0.0270722
8.71 -0.0270629
8.72 -0.0269567
8.73 -0.0267364
8.74 -0.0263831
8.75 -0.0258842
8.76 -0.0252089
8.77 -0.0243832
8.78 -0.0234165
8.79 -0.0223239
8.8 -0.0211169
8.81 -0.0198345
8.82 -0.0185117
8.83 -0.0171817
8.84 -0.0158841
8.85 -0.0146605
8.86 -0.0135406
8.87 -0.0125543
8.88 -0.0117346
8.89 -0.0111194
8.9 -0.0107017
8.91 -0.0104876
8.92 -0.0104763
8.93 -0.0106884
8.94 -0.0110742
8.95 -0.0116096
8.96 -0.0122646
8.97 -0.0130096
8.98 -0.0137915
8.99 -0.0145643
9 -0.0152839
9.01 -0.0158948
9.02 -0.0163464
9.03 -0.0166087
9.04 -0.0166476
9.05 -0.0164232
9.06 -0.0158898
9.07 -0.0150658
9.08 -0.0139471
9.09 -0.0125369
9.1 -0.0108067
9.11 -0.00882449
9.12 -0.0066196
9.13 -0.00422749
9.14 -0.00167652
9.15 0.00096853
9.16 0.00365435
9.17 0.00633206
9.18 0.00894459
9.19 0.0114372
9.2 0.0137734
9.21 0.0159167
9.22 0.0178261
9.23 0.0194567
9.24 0.0208224
9.25 0.0219181
9.26 0.022746
9.27 0.0232813
9.28 0.023587
9.29 0.023691
9.3 0.0236276
9.31 0.0234247
9.32 0.0231432
9.33 0.0228323
9.34 0.0225372
9.35 0.022311
9.36 0.0222024
9.37 0.0222425
9.38 0.0224623
9.39 0.0228969
9.4 0.0235818
9.41 0.0245006
9.42 0.0256531
9.43 0.0270328
9.44 0.0286524
9.45 0.0304531
9.46 0.0324045
9.47 0.0344715
9.48 0.0366194
9.49 0.0387931
9.5 0.0409474
9.51 0.0430404
9.52 0.0450198
9.53 0.0468436
9.54 0.048489
9.55 0.0499314
9.56 0.0511412
9.57 0.0520908
9.58 0.0528043
9.59 0.053288
9.6 0.053554
9.61 0.0535978
9.62 0.0534806
9.63 0.0532354
9.64 0.0528995
9.65 0.0525117
9.66 0.0521244
9.67 0.05178
9.68 0.0515178
9.69 0.0513876
9.7 0.0514251
9.71 0.0516462
9.72 0.0520693
9.73 0.0527164
9.74 0.0536052
9.75 0.054705
9.76 0.0560023
9.77 0.0574774
9.78 0.0591186
9.79 0.0608648
9.8 0.0626762
9.81 0.0645094
9.82 0.0663099
9.83 0.0680262
9.84 0.0696138
9.85 0.0710288
9.86 0.0722084
9.87 0.0731144
9.88 0.0737337
9.89 0.0740441
9.9 0.0740138
9.91 0.073614
9.92 0.072883
9.93 0.0718301
9.94 0.0704687
9.95 0.0687858
9.96 0.0668568
9.97 0.0647161
9.98 0.0624012
9.99 0.0599405
10 0.0573946
10.01 0.0548084
10.02 0.0522211
10.03 0.0496762
10.04 0.0472119
10.05 0.0448524
10.06 0.04262
10.07 0.0405392
10.08 0.0386305
10.09 0.0368806
10.1 0.0352863
10.11 0.0338407
10.12 0.0325458
10.13 0.0313609
10.14 0.0302637
10.15 0.0292294
10.16 0.0282327
10.17 0.0272391
10.18 0.0262212
10.19 0.0251542
10.2 0.0240068
10.21 0.0227579
10.22 0.0213979
10.23 0.0199157
10.24 0.0182978
10.25 0.0165353
10.26 0.0146456
10.27 0.0126364
10.28 0.0105178
10.29 0.00829489
10.3 0.0060011
10.31 0.00365646
10.32 0.00128214
10.33 -0.0010983
10.34 -0.00345956
10.35 -0.00578124
10.36 -0.00804462
10.37 -0.0102247
10.38 -0.0123071
10.39 -0.0142868
10.4 -0.0161563
10.41 -0.0179048
10.42 -0.0195252
10.43 -0.0210319
10.44 -0.0224294
10.45 -0.023723
10.46 -0.0249099
10.47 -0.0260143
10.48 -0.0270461
10.49 -0.0280154
10.5 -0.0289254
10.51 -0.0297915
10.52 -0.0306216
10.53 -0.0314208
10.54 -0.03219
10.55 -0.0329311
10.56 -0.0336447
10.57 -0.0343278
10.58 -0.0349737
10.59 -0.0355733
10.6 -0.0361236
10.61 -0.0366171
10.62 -0.0370455
10.63 -0.037392
10.64 -0.0376603
10.65 -0.0378466
10.66 -0.0379483
10.67 -0.0379539
10.68 -0.0378755
10.69 -0.0377202
10.7 -0.0374952
10.71 -0.0372054
10.72 -0.0368669
10.73 -0.0364972
10.74 -0.0361114
10.75 -0.0357261
10.76 -0.0353615
10.77 -0.035033
10.78 -0.0347555
10.79 -0.0345439
10.8 -0.0344209
10.81 -0.0343853
10.82 -0.0344428
10.83 -0.0345961
10.84 -0.0348575
10.85 -0.0352108
10.86 -0.0356461
10.87 -0.0361526
10.88 -0.0367208
10.89 -0.0373296
10.9 -0.0379574
10.91 -0.0385853
10.92 -0.0391912
10.93 -0.0397501
10.94 -0.0402462
10.95 -0.0406625
10.96 -0.0409822
10.97 -0.0411782
10.98 -0.041256
10.99 -0.0412109
11 -0.0410414
11.01 -0.0407334
11.02 -0.0403088
11.03 -0.0397802
11.04 -0.0391611
11.05 -0.0384615
11.06 -0.037706
11.07 -0.0369187
11.08 -0.0361204
11.09 -0.0353335
11.1 -0.0345832
11.11 -0.0338863
11.12 -0.0332593
11.13 -0.032718
11.14 -0.0322861
11.15 -0.0319578
11.16 -0.031736
11.17 -0.0316199
11.18 -0.0316181
11.19 -0.0317084
11.2 -0.0318764
11.21 -0.0321071
11.22 -0.0323855
11.23 -0.0326866
11.24 -0.0329872
11.25 -0.0332662
11.26 -0.0334991
11.27 -0.03366
11.28 -0.0337361
11.29 -0.0337118
11.3 -0.033572
11.31 -0.0332917
11.32 -0.032882
11.33 -0.0323413
11.34 -0.0316718
11.35 -0.0308629
11.36 -0.0299405
11.37 -0.0289196
11.38 -0.0278154
11.39 -0.0266402
11.4 -0.025419
11.41 -0.024175
11.42 -0.0229277
11.43 -0.0216983
11.44 -0.0205093
11.45 -0.0193744
11.46 -0.0183073
11.47 -0.0173211
11.48 -0.0164351
11.49 -0.0156426
11.5 -0.0149453
11.51 -0.0143418
11.52 -0.0138402
11.53 -0.0134213
11.54 -0.0130746
11.55 -0.0127893
11.56 -0.0125578
11.57 -0.0123631
11.58 -0.0121901
11.59 -0.0120272
11.6 -0.0118627
11.61 -0.0116856
11.62 -0.011489
11.63 -0.0112681
11.64 -0.0110193
11.65 -0.0107395
11.66 -0.0104349
11.67 -0.0101103
11.68 -0.00977204
11.69 -0.00942882
11.7 -0.0090921
11.71 -0.00877225
11.72 -0.00847978
11.73 -0.00823002
11.74 -0.00803211
11.75 -0.00789192
11.76 -0.00781585
11.77 -0.00781306
11.78 -0.00788781
11.79 -0.00803264
11.8 -0.00824416
11.81 -0.00851797
11.82 -0.00884988
11.83 -0.00922111
11.84 -0.00961914
11.85 -0.0100301
11.86 -0.0104368
11.87 -0.0108223
11.88 -0.0111718
11.89 -0.0114711
11.9 -0.0116991
11.91 -0.0118464
11.92 -0.0119081
11.93 -0.0118782
