[DEFAULT]

version = diffpy.pdfgetx-2.2.1

# input and output specifications
dataformat = twotheta
inputfile = Synthetic_CSH_CSH_pdf_ramp_1000_07_normalized.chi
backgroundfiles = quartz_030degC_normalized.chi
outputtype = gr

# PDF calculation setup
mode = xray
wavelength = 0.2113
twothetazero = 0
composition = CaO SiO2
bgscales = 1.0
rpoly = 0.9
qmaxinst = 23.7031
qmin = 0.5
qmax = 20
rmin = 0
rmax = 60
rstep = 0.01

# End of config --------------------------------------------------------------

#### start data
#S 1
#L r(Å)  G(Å$^{-2}$)
0 0
0.01 0.000378662
0.02 0.000733661
0.03 0.00104538
0.04 0.00129623
0.05 0.00146098
0.06 0.00153381
0.07 0.00151229
0.08 0.00139551
0.09 0.00118046
0.1 0.000878142
0.11 0.000509585
0.12 9.20894e-05
0.13 -0.00035452
0.14 -0.00080479
0.15 -0.00123315
0.16 -0.0016175
0.17 -0.00193731
0.18 -0.00215978
0.19 -0.00228355
0.2 -0.00230099
0.21 -0.00220985
0.22 -0.00200197
0.23 -0.00169846
0.24 -0.00132043
0.25 -0.000890213
0.26 -0.000435174
0.27 7.55323e-06
0.28 0.000403346
0.29 0.000718705
0.3 0.00091503
0.31 0.000947382
0.32 0.000806507
0.33 0.00047547
0.34 -5.54428e-05
0.35 -0.000815385
0.36 -0.00175905
0.37 -0.00286183
0.38 -0.00408803
0.39 -0.00539325
0.4 -0.00670259
0.41 -0.00794399
0.42 -0.00904033
0.43 -0.00988181
0.44 -0.0103657
0.45 -0.0104228
0.46 -0.00996769
0.47 -0.00888982
0.48 -0.00705706
0.49 -0.00448198
0.5 -0.00112009
0.51 0.00306087
0.52 0.00819464
0.53 0.0141373
0.54 0.0208519
0.55 0.0282803
0.56 0.03641
0.57 0.0450643
0.58 0.0540968
0.59 0.0633664
0.6 0.0727099
0.61 0.0819257
0.62 0.0908345
0.63 0.0992585
0.64 0.106982
0.65 0.113747
0.66 0.119476
0.67 0.124024
0.68 0.127258
0.69 0.12885
0.7 0.128933
0.71 0.127462
0.72 0.124418
0.73 0.119618
0.74 0.113257
0.75 0.105464
0.76 0.0963388
0.77 0.0859159
0.78 0.0743903
0.79 0.0620175
0.8 0.0489791
0.81 0.0354535
0.82 0.0216538
0.83 0.00782318
0.84 -0.00584922
0.85 -0.0191795
0.86 -0.0319032
0.87 -0.0439353
0.88 -0.0551524
0.89 -0.0654536
0.9 -0.0746276
0.91 -0.0827165
0.92 -0.0897346
0.93 -0.0956889
0.94 -0.100524
0.95 -0.104324
0.96 -0.107241
0.97 -0.109372
0.98 -0.110797
0.99 -0.111623
1 -0.112051
1.01 -0.112208
1.02 -0.112224
1.03 -0.112238
1.04 -0.112381
1.05 -0.112756
1.06 -0.113455
1.07 -0.114617
1.08 -0.116271
1.09 -0.118447
1.1 -0.121173
1.11 -0.124511
1.12 -0.128448
1.13 -0.132923
1.14 -0.137909
1.15 -0.143388
1.16 -0.14933
1.17 -0.155628
1.18 -0.162227
1.19 -0.169068
1.2 -0.176104
1.21 -0.183241
1.22 -0.19042
1.23 -0.197581
1.24 -0.204648
1.25 -0.211565
1.26 -0.218275
1.27 -0.224722
1.28 -0.23081
1.29 -0.236469
1.3 -0.241655
1.31 -0.246293
1.32 -0.250265
1.33 -0.253425
1.34 -0.255747
1.35 -0.257126
1.36 -0.257438
1.37 -0.25639
1.38 -0.254022
1.39 -0.250216
1.4 -0.244853
1.41 -0.237587
1.42 -0.228477
1.43 -0.217483
1.44 -0.204538
1.45 -0.189407
1.46 -0.17212
1.47 -0.15283
1.48 -0.131586
1.49 -0.108379
1.5 -0.0832689
1.51 -0.0566241
1.52 -0.0286548
1.53 0.000401933
1.54 0.0303166
1.55 0.0606159
1.56 0.090947
1.57 0.120934
1.58 0.150032
1.59 0.177856
1.6 0.204023
1.61 0.22813
1.62 0.249523
1.63 0.267844
1.64 0.282931
1.65 0.294498
1.66 0.302083
1.67 0.305267
1.68 0.304334
1.69 0.299227
1.7 0.289886
1.71 0.275869
1.72 0.257933
1.73 0.23629
1.74 0.211212
1.75 0.182649
1.76 0.151385
1.77 0.117918
1.78 0.0827048
1.79 0.0461513
1.8 0.00888423
1.81 -0.0285251
1.82 -0.0655878
1.83 -0.101758
1.84 -0.136448
1.85 -0.169354
1.86 -0.200114
1.87 -0.22837
1.88 -0.253483
1.89 -0.27563
1.9 -0.294684
1.91 -0.310575
1.92 -0.322858
1.93 -0.331958
1.94 -0.338054
1.95 -0.341299
1.96 -0.341648
1.97 -0.339464
1.98 -0.335163
1.99 -0.329016
2 -0.321221
2.01 -0.312049
2.02 -0.301914
2.03 -0.29106
2.04 -0.279705
2.05 -0.268032
2.06 -0.256255
2.07 -0.24449
2.08 -0.232815
2.09 -0.221295
2.1 -0.209914
2.11 -0.198634
2.12 -0.187391
2.13 -0.176079
2.14 -0.164573
2.15 -0.152754
2.16 -0.140494
2.17 -0.127627
2.18 -0.113988
2.19 -0.0995406
2.2 -0.0842101
2.21 -0.0679307
2.22 -0.0505752
2.23 -0.0323063
2.24 -0.0131915
2.25 0.00666351
2.26 0.0271746
2.27 0.0480579
2.28 0.0690792
2.29 0.0899877
2.3 0.110439
2.31 0.130102
2.32 0.148697
2.33 0.165917
2.34 0.181338
2.35 0.194542
2.36 0.205439
2.37 0.213795
2.38 0.219348
2.39 0.221577
2.4 0.220769
2.41 0.216871
2.42 0.209883
2.43 0.199436
2.44 0.186033
2.45 0.169897
2.46 0.151239
2.47 0.130113
2.48 0.106968
2.49 0.0822646
2.5 0.0563532
2.51 0.0295737
2.52 0.00235631
2.53 -0.0248538
2.54 -0.0516961
2.55 -0.0778033
2.56 -0.102691
2.57 -0.126192
2.58 -0.148069
2.59 -0.168125
2.6 -0.185912
2.61 -0.201573
2.62 -0.215101
2.63 -0.226504
2.64 -0.23563
2.65 -0.242701
2.66 -0.247982
2.67 -0.251653
2.68 -0.253852
2.69 -0.254821
2.7 -0.254942
2.71 -0.254473
2.72 -0.253669
2.73 -0.252815
2.74 -0.25218
2.75 -0.251974
2.76 -0.252385
2.77 -0.2537
2.78 -0.255946
2.79 -0.259187
2.8 -0.263457
2.81 -0.268854
2.82 -0.275269
2.83 -0.282554
2.84 -0.290582
2.85 -0.299222
2.86 -0.308261
2.87 -0.317435
2.88 -0.326514
2.89 -0.335247
2.9 -0.343286
2.91 -0.350445
2.92 -0.356492
2.93 -0.361211
2.94 -0.364154
2.95 -0.365332
2.96 -0.364628
2.97 -0.361936
2.98 -0.356956
2.99 -0.349764
3 -0.340478
3.01 -0.329143
3.02 -0.315717
3.03 -0.300291
3.04 -0.2832
3.05 -0.264625
3.06 -0.24474
3.07 -0.223696
3.08 -0.201897
3.09 -0.179593
3.1 -0.157037
3.11 -0.134519
3.12 -0.112316
3.13 -0.0906623
3.14 -0.0697762
3.15 -0.0499843
3.16 -0.0314364
3.17 -0.0142264
3.18 0.00152641
3.19 0.0156204
3.2 0.0279513
3.21 0.0386407
3.22 0.047696
3.23 0.0551083
3.24 0.0607985
3.25 0.0650698
3.26 0.0680389
3.27 0.0698417
3.28 0.0705027
3.29 0.0703507
3.3 0.0695725
3.31 0.0683488
3.32 0.0668541
3.33 0.065314
3.34 0.0639129
3.35 0.0628145
3.36 0.062213
3.37 0.0622817
3.38 0.0630921
3.39 0.0647406
3.4 0.0673338
3.41 0.0710297
3.42 0.0757348
3.43 0.0814549
3.44 0.0881754
3.45 0.0959987
3.46 0.104722
3.47 0.11426
3.48 0.124518
3.49 0.135446
3.5 0.146864
3.51 0.158614
3.52 0.17056
3.53 0.182556
3.54 0.194431
3.55 0.206045
3.56 0.217263
3.57 0.227936
3.58 0.237861
3.59 0.247003
3.6 0.255266
3.61 0.262569
3.62 0.268675
3.63 0.273678
3.64 0.277548
3.65 0.280266
3.66 0.281694
3.67 0.28192
3.68 0.281023
3.69 0.279036
3.7 0.275934
3.71 0.27177
3.72 0.266698
3.73 0.260787
3.74 0.254085
3.75 0.246619
3.76 0.238558
3.77 0.229977
3.78 0.220948
3.79 0.211492
3.8 0.201736
3.81 0.19174
3.82 0.181556
3.83 0.171218
3.84 0.16078
3.85 0.150282
3.86 0.139749
3.87 0.129204
3.88 0.118667
3.89 0.108153
3.9 0.0976736
3.91 0.0872404
3.92 0.0768713
3.93 0.0665727
3.94 0.0563589
3.95 0.0462474
3.96 0.0362828
3.97 0.0264764
3.98 0.0168599
3.99 0.00747059
4 -0.00161241
4.01 -0.0103528
4.02 -0.0187102
4.03 -0.0266285
4.04 -0.0340064
4.05 -0.0407674
4.06 -0.0468943
4.07 -0.0523283
4.08 -0.0569841
4.09 -0.0607325
4.1 -0.0636237
4.11 -0.0656212
4.12 -0.0666972
4.13 -0.0666841
4.14 -0.0657211
4.15 -0.0638184
4.16 -0.0609953
4.17 -0.0571834
4.18 -0.0525026
4.19 -0.0470488
4.2 -0.0408915
4.21 -0.0340685
4.22 -0.0266849
4.23 -0.0188878
4.24 -0.0107799
4.25 -0.00246367
4.26 0.00594202
4.27 0.0143086
4.28 0.0225319
4.29 0.0305128
4.3 0.0380913
4.31 0.0452281
4.32 0.051852
4.33 0.0579027
4.34 0.0632539
4.35 0.0679169
4.36 0.0719007
4.37 0.0752027
4.38 0.077782
4.39 0.0796692
4.4 0.0809586
4.41 0.0817014
4.42 0.0819423
4.43 0.0817311
4.44 0.0812022
4.45 0.0804381
4.46 0.0795236
4.47 0.0785479
4.48 0.077615
4.49 0.0768056
4.5 0.0761955
4.51 0.0758939
4.52 0.0759486
4.53 0.0763983
4.54 0.077283
4.55 0.0786715
4.56 0.0805839
4.57 0.0829877
4.58 0.085877
4.59 0.0892548
4.6 0.0931246
4.61 0.0973952
4.62 0.102023
4.63 0.106961
4.64 0.112184
4.65 0.117589
4.66 0.123115
4.67 0.128701
4.68 0.13428
4.69 0.139784
4.7 0.145159
4.71 0.150351
4.72 0.155291
4.73 0.159927
4.74 0.164242
4.75 0.168204
4.76 0.171767
4.77 0.174875
4.78 0.177556
4.79 0.179797
4.8 0.181585
4.81 0.182842
4.82 0.183633
4.83 0.183954
4.84 0.183802
4.85 0.183115
4.86 0.181932
4.87 0.180265
4.88 0.178111
4.89 0.175425
4.9 0.172202
4.91 0.168476
4.92 0.164242
4.93 0.15947
4.94 0.154121
4.95 0.148252
4.96 0.141865
4.97 0.134959
4.98 0.127468
4.99 0.119485
5 0.111026
5.01 0.102114
5.02 0.0927265
5.03 0.082942
5.04 0.0728146
5.05 0.0623894
5.06 0.0516997
5.07 0.0408139
5.08 0.0298084
5.09 0.0187448
5.1 0.00768993
5.11 -0.00327536
5.12 -0.0140893
5.13 -0.0246891
5.14 -0.0350122
5.15 -0.0449439
5.16 -0.0544775
5.17 -0.0635667
5.18 -0.0721712
5.19 -0.0801877
5.2 -0.0876349
5.21 -0.0945126
5.22 -0.10081
5.23 -0.106472
5.24 -0.111512
5.25 -0.115982
5.26 -0.1199
5.27 -0.12326
5.28 -0.12606
5.29 -0.128386
5.3 -0.130266
5.31 -0.131728
5.32 -0.13275
5.33 -0.13342
5.34 -0.133764
5.35 -0.133803
5.36 -0.133521
5.37 -0.13296
5.38 -0.132139
5.39 -0.131061
5.4 -0.129704
5.41 -0.128065
5.42 -0.126155
5.43 -0.123963
5.44 -0.121459
5.45 -0.118605
5.46 -0.11542
5.47 -0.111888
5.48 -0.107992
5.49 -0.103667
5.5 -0.0989594
5.51 -0.0938666
5.52 -0.0883895
5.53 -0.0824864
5.54 -0.0762089
5.55 -0.0695869
5.56 -0.0626438
5.57 -0.0553852
5.58 -0.0478578
5.59 -0.0401206
5.6 -0.032216
5.61 -0.0241854
5.62 -0.0160803
5.63 -0.00796108
5.64 0.000124452
5.65 0.00812797
5.66 0.0159801
5.67 0.0236535
5.68 0.0311104
5.69 0.0383174
5.7 0.0452052
5.71 0.0517761
5.72 0.0580206
5.73 0.0639261
5.74 0.0694527
5.75 0.0746051
5.76 0.0794091
5.77 0.0838699
5.78 0.0879782
5.79 0.0917277
5.8 0.0951656
5.81 0.0983032
5.82 0.101148
5.83 0.103673
5.84 0.105929
5.85 0.107921
5.86 0.10965
5.87 0.111083
5.88 0.112242
5.89 0.113129
5.9 0.113733
5.91 0.114017
5.92 0.113972
5.93 0.113605
5.94 0.112903
5.95 0.111834
5.96 0.110367
5.97 0.108533
5.98 0.106327
5.99 0.103745
6 0.100746
6.01 0.0973961
6.02 0.093713
6.03 0.0897206
6.04 0.0854154
6.05 0.080869
6.06 0.0761302
6.07 0.0712451
6.08 0.0662597
6.09 0.0612399
6.1 0.0562463
6.11 0.0513342
6.12 0.0465689
6.13 0.0420222
6.14 0.0377268
6.15 0.0337269
6.16 0.0300667
6.17 0.0268301
6.18 0.0239898
6.19 0.0215605
6.2 0.0195486
6.21 0.0180074
6.22 0.0168765
6.23 0.0161247
6.24 0.0157233
6.25 0.0156626
6.26 0.0158818
6.27 0.0163126
6.28 0.0169031
6.29 0.0176012
6.3 0.0183426
6.31 0.0190624
6.32 0.0197065
6.33 0.020221
6.34 0.0205296
6.35 0.0206122
6.36 0.0204344
6.37 0.0199685
6.38 0.0191495
6.39 0.0179997
6.4 0.0165229
6.41 0.014723
6.42 0.0125824
6.43 0.0101341
6.44 0.0074225
6.45 0.00447753
6.46 0.00132372
6.47 -0.00200178
6.48 -0.0054402
6.49 -0.00895166
6.5 -0.0124964
6.51 -0.0160293
6.52 -0.0195115
6.53 -0.0229107
6.54 -0.0261978
6.55 -0.0293259
6.56 -0.0322888
6.57 -0.0350748
6.58 -0.0376736
6.59 -0.0400597
6.6 -0.042239
6.61 -0.044226
6.62 -0.046026
6.63 -0.0476368
6.64 -0.0490628
6.65 -0.0503324
6.66 -0.0514563
6.67 -0.0524421
6.68 -0.053285
6.69 -0.0540104
6.7 -0.0546231
6.71 -0.0551254
6.72 -0.055501
6.73 -0.0557592
6.74 -0.0558958
6.75 -0.0559017
6.76 -0.0557504
6.77 -0.0554323
6.78 -0.0549413
6.79 -0.0542623
6.8 -0.0533667
6.81 -0.0522286
6.82 -0.0508553
6.83 -0.0492351
6.84 -0.0473531
6.85 -0.0451712
6.86 -0.0427229
6.87 -0.040009
6.88 -0.0370341
6.89 -0.0337721
6.9 -0.0302688
6.91 -0.0265452
6.92 -0.0226212
6.93 -0.018504
6.94 -0.0142322
6.95 -0.00984396
6.96 -0.00536915
6.97 -0.000837436
6.98 0.00371418
6.99 0.00824923
7 0.0127364
7.01 0.0171426
7.02 0.0214215
7.03 0.0255575
7.04 0.0295253
7.05 0.0333011
7.06 0.0368298
7.07 0.040117
7.08 0.0431491
7.09 0.0459113
7.1 0.0483595
7.11 0.0504938
7.12 0.0523204
7.13 0.0538306
7.14 0.0549954
7.15 0.0557965
7.16 0.0562593
7.17 0.0563785
7.18 0.0561409
7.19 0.0555031
7.2 0.0545093
7.21 0.0531574
7.22 0.0514465
7.23 0.0493246
7.24 0.0468408
7.25 0.0440044
7.26 0.0408214
7.27 0.0372655
7.28 0.033367
7.29 0.029159
7.3 0.0246586
7.31 0.01987
7.32 0.0148144
7.33 0.00954452
7.34 0.00409032
7.35 -0.00151843
7.36 -0.00725281
7.37 -0.013056
7.38 -0.0188888
7.39 -0.0247109
7.4 -0.0304681
7.41 -0.0361211
7.42 -0.0416306
7.43 -0.0469575
7.44 -0.052037
7.45 -0.05684
7.46 -0.0613468
7.47 -0.0655282
7.48 -0.0693334
7.49 -0.0727268
7.5 -0.0757239
7.51 -0.0783108
7.52 -0.080465
7.53 -0.0821344
7.54 -0.0833722
7.55 -0.0841787
7.56 -0.084557
7.57 -0.084451
7.58 -0.083927
7.59 -0.083
7.6 -0.0816809
7.61 -0.0799423
7.62 -0.0778211
7.63 -0.0753506
7.64 -0.0725451
7.65 -0.0693985
7.66 -0.065922
7.67 -0.0621602
7.68 -0.0581296
7.69 -0.0538402
7.7 -0.0492897
7.71 -0.04453
7.72 -0.0395821
7.73 -0.0344687
7.74 -0.0291973
7.75 -0.0238183
7.76 -0.0183626
7.77 -0.0128624
7.78 -0.00735484
7.79 -0.00188387
7.8 0.00351111
7.81 0.00878916
7.82 0.0138935
7.83 0.0187681
7.84 0.0233844
7.85 0.0276988
7.86 0.0316568
7.87 0.0351723
7.88 0.0382531
7.89 0.0408641
7.9 0.0429736
7.91 0.0444708
7.92 0.0454064
7.93 0.0457691
7.94 0.045548
7.95 0.0446725
7.96 0.0431815
7.97 0.0411116
7.98 0.0384761
7.99 0.0352558
8 0.0314709
8.01 0.0271977
8.02 0.0224681
8.03 0.0173046
8.04 0.0117139
8.05 0.00578721
8.06 -0.000436495
8.07 -0.00691855
8.08 -0.0136491
8.09 -0.0205557
8.1 -0.0276028
8.11 -0.0347591
8.12 -0.0420015
8.13 -0.0492952
8.14 -0.0566144
8.15 -0.0639396
8.16 -0.0712519
8.17 -0.0785337
8.18 -0.085774
8.19 -0.0929618
8.2 -0.100085
8.21 -0.107125
8.22 -0.11408
8.23 -0.120939
8.24 -0.127691
8.25 -0.134301
8.26 -0.140769
8.27 -0.147078
8.28 -0.153206
8.29 -0.159107
8.3 -0.164764
8.31 -0.170161
8.32 -0.17527
8.33 -0.180035
8.34 -0.184418
8.35 -0.188419
8.36 -0.192011
8.37 -0.19515
8.38 -0.197771
8.39 -0.199909
8.4 -0.201549
8.41 -0.20268
8.42 -0.203216
8.43 -0.203234
8.44 -0.202742
8.45 -0.20175
8.46 -0.200219
8.47 -0.198209
8.48 -0.195765
8.49 -0.192916
8.5 -0.189669
8.51 -0.186061
8.52 -0.182158
8.53 -0.177998
8.54 -0.173608
8.55 -0.169012
8.56 -0.16427
8.57 -0.159409
8.58 -0.154457
8.59 -0.149428
8.6 -0.144351
8.61 -0.139239
8.62 -0.134103
8.63 -0.128942
8.64 -0.12376
8.65 -0.118553
8.66 -0.113315
8.67 -0.108032
8.68 -0.102692
8.69 -0.0972856
8.7 -0.0918019
8.71 -0.0862262
8.72 -0.0805393
8.73 -0.0747457
8.74 -0.0688414
8.75 -0.0628254
8.76 -0.0566839
8.77 -0.050442
8.78 -0.0441106
8.79 -0.0377045
8.8 -0.031237
8.81 -0.0247372
8.82 -0.0182313
8.83 -0.0117447
8.84 -0.00530981
8.85 0.00104095
8.86 0.00728565
8.87 0.0133996
8.88 0.0193533
8.89 0.02511
8.9 0.0306736
8.91 0.0360326
8.92 0.0411802
8.93 0.0460798
8.94 0.0507692
8.95 0.0552564
8.96 0.0595539
8.97 0.0636593
8.98 0.0676103
8.99 0.0714369
9 0.0751643
9.01 0.0788156
9.02 0.0824233
9.03 0.0860189
9.04 0.0896273
9.05 0.0932736
9.06 0.0969848
9.07 0.100771
9.08 0.104644
9.09 0.10861
9.1 0.112685
9.11 0.116851
9.12 0.121099
9.13 0.125414
9.14 0.129785
9.15 0.13418
9.16 0.138575
9.17 0.14294
9.18 0.147242
9.19 0.151446
9.2 0.155526
9.21 0.159455
9.22 0.163197
9.23 0.166711
9.24 0.169997
9.25 0.173038
9.26 0.175821
9.27 0.178294
9.28 0.180495
9.29 0.182424
9.3 0.184083
9.31 0.18545
9.32 0.186559
9.33 0.187433
9.34 0.188088
9.35 0.188523
9.36 0.188761
9.37 0.188834
9.38 0.188758
9.39 0.188542
9.4 0.188194
9.41 0.18774
9.42 0.187186
9.43 0.186539
9.44 0.185788
9.45 0.184947
9.46 0.184013
9.47 0.182982
9.48 0.181834
9.49 0.180568
9.5 0.17918
9.51 0.177662
9.52 0.175991
9.53 0.174162
9.54 0.172178
9.55 0.170036
9.56 0.167727
9.57 0.165242
9.58 0.162604
9.59 0.159819
9.6 0.156899
9.61 0.153839
9.62 0.150678
9.63 0.147433
9.64 0.144125
9.65 0.140774
9.66 0.13741
9.67 0.134058
9.68 0.130741
9.69 0.127489
9.7 0.124327
9.71 0.12127
9.72 0.118334
9.73 0.115544
9.74 0.112922
9.75 0.110464
9.76 0.108176
9.77 0.106063
9.78 0.104153
9.79 0.10242
9.8 0.100859
9.81 0.0994678
9.82 0.0982613
9.83 0.0972172
9.84 0.0963243
9.85 0.0955771
9.86 0.0949828
9.87 0.094534
9.88 0.0942184
9.89 0.0940347
9.9 0.0939896
9.91 0.0940938
9.92 0.0943361
9.93 0.094721
9.94 0.0952556
9.95 0.095969
9.96 0.096845
9.97 0.0978899
9.98 0.0991091
9.99 0.100531
10 0.102139
10.01 0.10393
10.02 0.1059
10.03 0.10806
10.04 0.110396
10.05 0.112883
10.06 0.115506
10.07 0.118251
10.08 0.121098
10.09 0.124007
10.1 0.126952
10.11 0.129902
10.12 0.132814
10.13 0.135658
10.14 0.138397
10.15 0.140999
10.16 0.143402
10.17 0.145587
10.18 0.147529
10.19 0.1492
10.2 0.150544
10.21 0.15154
10.22 0.152191
10.23 0.152482
10.24 0.15238
10.25 0.151853
10.26 0.150938
10.27 0.149634
10.28 0.147936
10.29 0.1458
10.3 0.143288
10.31 0.140411
10.32 0.137178
10.33 0.133558
10.34 0.129603
10.35 0.125334
10.36 0.120766
10.37 0.115889
10.38 0.110725
10.39 0.105307
10.4 0.0996492
10.41 0.0937525
10.42 0.087621
10.43 0.081291
10.44 0.0747753
10.45 0.0680842
10.46 0.0612119
10.47 0.0541966
10.48 0.0470526
10.49 0.0397947
10.5 0.0324275
10.51 0.024981
10.52 0.0174752
10.53 0.00992863
10.54 0.00236036
10.55 -0.00520537
10.56 -0.0127471
10.57 -0.0202446
10.58 -0.0276729
10.59 -0.0350045
10.6 -0.0422278
10.61 -0.0493254
10.62 -0.0562785
10.63 -0.0630502
10.64 -0.0696498
10.65 -0.0760672
10.66 -0.0822946
10.67 -0.0882994
10.68 -0.0941003
10.69 -0.0997016
10.7 -0.105105
10.71 -0.110295
10.72 -0.115283
10.73 -0.12009
10.74 -0.124721
10.75 -0.129174
10.76 -0.133451
10.77 -0.137575
10.78 -0.141551
10.79 -0.145382
10.8 -0.149053
10.81 -0.152585
10.82 -0.155976
10.83 -0.159222
10.84 -0.162296
10.85 -0.165207
10.86 -0.167948
10.87 -0.170508
10.88 -0.172854
10.89 -0.17498
10.9 -0.176882
10.91 -0.178549
10.92 -0.179953
10.93 -0.181071
10.94 -0.181921
10.95 -0.182495
10.96 -0.182786
10.97 -0.18276
10.98 -0.182459
10.99 -0.181892
11 -0.181069
11.01 -0.179972
11.02 -0.178651
11.03 -0.177131
11.04 -0.175435
11.05 -0.173577
11.06 -0.171594
11.07 -0.169524
11.08 -0.167394
11.09 -0.165232
11.1 -0.163071
11.11 -0.160937
11.12 -0.158854
11.13 -0.156844
11.14 -0.154938
11.15 -0.153139
11.16 -0.151456
11.17 -0.149897
11.18 -0.148483
11.19 -0.147197
11.2 -0.146034
11.21 -0.144986
11.22 -0.144056
11.23 -0.143225
11.24 -0.142476
11.25 -0.141796
11.26 -0.141175
11.27 -0.1406
11.28 -0.140054
11.29 -0.139529
11.3 -0.139016
11.31 -0.13851
11.32 -0.138008
11.33 -0.137508
11.34 -0.137014
11.35 -0.136532
11.36 -0.13607
11.37 -0.135636
11.38 -0.135242
11.39 -0.134905
11.4 -0.134639
11.41 -0.134452
11.42 -0.134357
11.43 -0.134371
11.44 -0.134511
11.45 -0.134773
11.46 -0.135161
11.47 -0.135681
11.48 -0.136348
11.49 -0.137137
11.5 -0.138043
11.51 -0.139056
11.52 -0.140173
11.53 -0.141366
11.54 -0.142615
11.55 -0.143902
11.56 -0.145204
11.57 -0.146497
11.58 -0.147759
11.59 -0.148969
11.6 -0.150102
11.61 -0.151132
11.62 -0.152052
11.63 -0.152849
11.64 -0.153506
11.65 -0.153999
11.66 -0.154342
11.67 -0.154533
11.68 -0.154571
11.69 -0.154439
11.7 -0.154162
11.71 -0.153751
11.72 -0.153214
11.73 -0.152551
11.74 -0.151779
11.75 -0.150917
11.76 -0.149975
11.77 -0.148959
11.78 -0.147878
11.79 -0.146745
11.8 -0.145566
11.81 -0.144343
11.82 -0.143074
11.83 -0.141764
11.84 -0.140409
11.85 -0.139006
11.86 -0.137541
11.87 -0.136011
11.88 -0.134409
11.89 -0.132727
11.9 -0.130944
11.91 -0.129056
11.92 -0.127058
11.93 -0.124943
11.94 -0.122696
11.95 -0.12031
11.96 -0.117791
11.97 -0.115141
11.98 -0.112356
11.99 -0.109426
12 -0.106375
12.01 -0.10321
12.02 -0.0999384
12.03 -0.0965581
12.04 -0.0930948
12.05 -0.0895613
12.06 -0.0859699
12.07 -0.0823294
12.08 -0.0786565
12.09 -0.074965
12.1 -0.0712655
12.11 -0.0675685
