[DEFAULT]

version = diffpy.pdfgetx-2.2.1

# input and output specifications
dataformat = twotheta
inputfile = Synthetic_CSH_CSH_pdf_ramp_300_07_normalized.chi
backgroundfiles = quartz_030degC_normalized.chi
outputtype = gr

# PDF calculation setup
mode = xray
wavelength = 0.2113
twothetazero = 0
composition = CaO SiO2
bgscales = 1.0
rpoly = 0.9
qmaxinst = 23.7031
qmin = 0.5
qmax = 20
rmin = 0
rmax = 60
rstep = 0.01

# End of config --------------------------------------------------------------

#### start data
#S 1
#L r(Å)  G(Å$^{-2}$)
0 0
0.01 -0.00254729
0.02 -0.00500715
0.03 -0.00730518
0.04 -0.00937134
0.05 -0.0110991
0.06 -0.0124498
0.07 -0.0133928
0.08 -0.0138962
0.09 -0.013903
0.1 -0.0134086
0.11 -0.0124606
0.12 -0.0110836
0.13 -0.00930061
0.14 -0.00714507
0.15 -0.00472612
0.16 -0.00211642
0.17 0.000604081
0.18 0.00333981
0.19 0.00598773
0.2 0.00845885
0.21 0.0106666
0.22 0.012478
0.23 0.0138382
0.24 0.0147002
0.25 0.0150159
0.26 0.0147021
0.27 0.0137435
0.28 0.0121911
0.29 0.0100682
0.3 0.00739652
0.31 0.00421465
0.32 0.000665803
0.33 -0.00315216
0.34 -0.0071279
0.35 -0.0111228
0.36 -0.0149834
0.37 -0.0185713
0.38 -0.0217469
0.39 -0.0242882
0.4 -0.0260929
0.41 -0.0270637
0.42 -0.027096
0.43 -0.0260102
0.44 -0.0237372
0.45 -0.0203193
0.46 -0.0157436
0.47 -0.00997455
0.48 -0.00298459
0.49 0.00501925
0.5 0.0139368
0.51 0.0236472
0.52 0.034076
0.53 0.0449362
0.54 0.056044
0.55 0.0672054
0.56 0.0781761
0.57 0.0887369
0.58 0.0986972
0.59 0.107869
0.6 0.115979
0.61 0.122853
0.62 0.128435
0.63 0.132618
0.64 0.135254
0.65 0.136181
0.66 0.135558
0.67 0.133402
0.68 0.129747
0.69 0.124468
0.7 0.117895
0.71 0.110147
0.72 0.101362
0.73 0.091597
0.74 0.0811149
0.75 0.0701053
0.76 0.0587259
0.77 0.0471221
0.78 0.0354628
0.79 0.0238837
0.8 0.0124892
0.81 0.00138063
0.82 -0.00934742
0.83 -0.0196914
0.84 -0.0296356
0.85 -0.0391808
0.86 -0.0482998
0.87 -0.0570929
0.88 -0.0656113
0.89 -0.0739129
0.9 -0.0820473
0.91 -0.0900979
0.92 -0.0981229
0.93 -0.106166
0.94 -0.114265
0.95 -0.122433
0.96 -0.130658
0.97 -0.138914
0.98 -0.147148
0.99 -0.155275
1 -0.163209
1.01 -0.170847
1.02 -0.178071
1.03 -0.184663
1.04 -0.190567
1.05 -0.195663
1.06 -0.199841
1.07 -0.202861
1.08 -0.204741
1.09 -0.205467
1.1 -0.205021
1.11 -0.203319
1.12 -0.200449
1.13 -0.196585
1.14 -0.191855
1.15 -0.186395
1.16 -0.180404
1.17 -0.174177
1.18 -0.167954
1.19 -0.161992
1.2 -0.15666
1.21 -0.152157
1.22 -0.14872
1.23 -0.14656
1.24 -0.14607
1.25 -0.147254
1.26 -0.150151
1.27 -0.154791
1.28 -0.161294
1.29 -0.169506
1.3 -0.179142
1.31 -0.189976
1.32 -0.201753
1.33 -0.214102
1.34 -0.226537
1.35 -0.238631
1.36 -0.249918
1.37 -0.259685
1.38 -0.267604
1.39 -0.273224
1.4 -0.276127
1.41 -0.275473
1.42 -0.271228
1.43 -0.263235
1.44 -0.251328
1.45 -0.235051
1.46 -0.214532
1.47 -0.19017
1.48 -0.162189
1.49 -0.13075
1.5 -0.0961924
1.51 -0.059372
1.52 -0.0208688
1.53 0.0186828
1.54 0.0585279
1.55 0.0978167
1.56 0.135817
1.57 0.171804
1.58 0.204617
1.59 0.233804
1.6 0.258847
1.61 0.279231
1.62 0.294008
1.63 0.302948
1.64 0.306194
1.65 0.303659
1.66 0.295061
1.67 0.280304
1.68 0.260273
1.69 0.235352
1.7 0.205955
1.71 0.172241
1.72 0.135469
1.73 0.0963252
1.74 0.0555267
1.75 0.0137793
1.76 -0.0279885
1.77 -0.0690604
1.78 -0.108781
1.79 -0.146307
1.8 -0.181086
1.81 -0.212825
1.82 -0.24119
1.83 -0.265724
1.84 -0.286098
1.85 -0.302677
1.86 -0.315539
1.87 -0.324792
1.88 -0.330315
1.89 -0.332941
1.9 -0.333052
1.91 -0.33107
1.92 -0.327277
1.93 -0.322376
1.94 -0.316845
1.95 -0.311101
1.96 -0.30557
1.97 -0.300622
1.98 -0.296489
1.99 -0.293345
2 -0.291354
2.01 -0.290579
2.02 -0.290824
2.03 -0.291934
2.04 -0.293689
2.05 -0.295793
2.06 -0.29781
2.07 -0.299353
2.08 -0.300009
2.09 -0.299116
2.1 -0.296354
2.11 -0.291361
2.12 -0.283781
2.13 -0.272995
2.14 -0.258831
2.15 -0.241316
2.16 -0.220371
2.17 -0.195806
2.18 -0.167606
2.19 -0.136323
2.2 -0.102242
2.21 -0.0656887
2.22 -0.0269378
2.23 0.0131722
2.24 0.0540851
2.25 0.0952122
2.26 0.135803
2.27 0.175208
2.28 0.212839
2.29 0.248123
2.3 0.280188
2.31 0.308597
2.32 0.33313
2.33 0.353465
2.34 0.369076
2.35 0.379614
2.36 0.385478
2.37 0.386709
2.38 0.383338
2.39 0.375105
2.4 0.362926
2.41 0.347156
2.42 0.328198
2.43 0.306177
2.44 0.281974
2.45 0.25613
2.46 0.22914
2.47 0.201471
2.48 0.173694
2.49 0.146265
2.5 0.119567
2.51 0.0940209
2.52 0.0700025
2.53 0.04761
2.54 0.0269958
2.55 0.00829987
2.56 -0.00821936
2.57 -0.0228485
2.58 -0.0356592
2.59 -0.0467619
2.6 -0.0560994
2.61 -0.0640657
2.62 -0.0708771
2.63 -0.076732
2.64 -0.0817725
2.65 -0.0862598
2.66 -0.0904107
2.67 -0.094383
2.68 -0.0983165
2.69 -0.102339
2.7 -0.106525
2.71 -0.110919
2.72 -0.115543
2.73 -0.120406
2.74 -0.125439
2.75 -0.130583
2.76 -0.135763
2.77 -0.140873
2.78 -0.145816
2.79 -0.150498
2.8 -0.154828
2.81 -0.15867
2.82 -0.161961
2.83 -0.164672
2.84 -0.166764
2.85 -0.168173
2.86 -0.168879
2.87 -0.168962
2.88 -0.168456
2.89 -0.167396
2.9 -0.165805
2.91 -0.163822
2.92 -0.161524
2.93 -0.15899
2.94 -0.15628
2.95 -0.153497
2.96 -0.150701
2.97 -0.147944
2.98 -0.145272
2.99 -0.142707
3 -0.140248
3.01 -0.137885
3.02 -0.135596
3.03 -0.133335
3.04 -0.131045
3.05 -0.12867
3.06 -0.126139
3.07 -0.123352
3.08 -0.120268
3.09 -0.116827
3.1 -0.112977
3.11 -0.108604
3.12 -0.103736
3.13 -0.0983674
3.14 -0.0924981
3.15 -0.0860953
3.16 -0.079225
3.17 -0.0719602
3.18 -0.0643606
3.19 -0.0564825
3.2 -0.0484132
3.21 -0.0402563
3.22 -0.0320921
3.23 -0.0240022
3.24 -0.0160827
3.25 -0.00837969
3.26 -0.000938284
3.27 0.00621121
3.28 0.0130096
3.29 0.0195081
3.3 0.0257377
3.31 0.0317435
3.32 0.0375779
3.33 0.0433425
3.34 0.049137
3.35 0.0550619
3.36 0.0612472
3.37 0.0678275
3.38 0.0748819
3.39 0.0825051
3.4 0.0908025
3.41 0.0999218
3.42 0.109819
3.43 0.120513
3.44 0.132003
3.45 0.144366
3.46 0.157428
3.47 0.171091
3.48 0.185245
3.49 0.199776
3.5 0.214477
3.51 0.229157
3.52 0.24363
3.53 0.257657
3.54 0.270993
3.55 0.283486
3.56 0.294952
3.57 0.305177
3.58 0.313853
3.59 0.321016
3.6 0.326566
3.61 0.330429
3.62 0.332298
3.63 0.332414
3.64 0.330817
3.65 0.327564
3.66 0.32257
3.67 0.31607
3.68 0.308272
3.69 0.299331
3.7 0.289352
3.71 0.278537
3.72 0.267147
3.73 0.25536
3.74 0.243348
3.75 0.231295
3.76 0.219368
3.77 0.207698
3.78 0.196394
3.79 0.185626
3.8 0.175398
3.81 0.165746
3.82 0.156688
3.83 0.148288
3.84 0.140479
3.85 0.133195
3.86 0.126385
3.87 0.120014
3.88 0.114007
3.89 0.108261
3.9 0.102711
3.91 0.0972982
3.92 0.0919694
3.93 0.0866702
3.94 0.0813739
3.95 0.0760671
3.96 0.0707515
3.97 0.0654494
3.98 0.0601947
3.99 0.0550339
4 0.0500501
4.01 0.0453114
4.02 0.040886
4.03 0.0368523
4.04 0.0333319
4.05 0.0304211
4.06 0.0281493
4.07 0.0265789
4.08 0.0257911
4.09 0.0258994
4.1 0.0268308
4.11 0.0285915
4.12 0.0311724
4.13 0.0346679
4.14 0.038907
4.15 0.0438289
4.16 0.0493627
4.17 0.0554781
4.18 0.0620288
4.19 0.0688941
4.2 0.0759721
4.21 0.0831598
4.22 0.0903351
4.23 0.0973942
4.24 0.104247
4.25 0.110796
4.26 0.116927
4.27 0.122617
4.28 0.127819
4.29 0.132496
4.3 0.136532
4.31 0.14
4.32 0.142899
4.33 0.145235
4.34 0.14696
4.35 0.148141
4.36 0.148824
4.37 0.149039
4.38 0.14878
4.39 0.14808
4.4 0.146999
4.41 0.14556
4.42 0.143767
4.43 0.141611
4.44 0.13914
4.45 0.136358
4.46 0.133267
4.47 0.129813
4.48 0.126041
4.49 0.121944
4.5 0.117516
4.51 0.112713
4.52 0.107557
4.53 0.102066
4.54 0.0962453
4.55 0.0900818
4.56 0.0835977
4.57 0.0768427
4.58 0.0698468
4.59 0.0626388
4.6 0.0552539
4.61 0.0477607
4.62 0.0402066
4.63 0.0326405
4.64 0.0251247
4.65 0.0177055
4.66 0.0104264
4.67 0.00332612
4.68 -0.00353291
4.69 -0.0101399
4.7 -0.0164872
4.71 -0.0225674
4.72 -0.0283604
4.73 -0.0338815
4.74 -0.0391721
4.75 -0.0442611
4.76 -0.0491785
4.77 -0.0539642
4.78 -0.058683
4.79 -0.0633832
4.8 -0.0681142
4.81 -0.0729433
4.82 -0.0779078
4.83 -0.0830466
4.84 -0.088393
4.85 -0.0940036
4.86 -0.099876
4.87 -0.106006
4.88 -0.11239
4.89 -0.119032
4.9 -0.125897
4.91 -0.132935
4.92 -0.1401
4.93 -0.147344
4.94 -0.154603
4.95 -0.161808
4.96 -0.168899
4.97 -0.175812
4.98 -0.182441
4.99 -0.188762
5 -0.194724
5.01 -0.200281
5.02 -0.205337
5.03 -0.209901
5.04 -0.213968
5.05 -0.21753
5.06 -0.220542
5.07 -0.223018
5.08 -0.225012
5.09 -0.226545
5.1 -0.227627
5.11 -0.228263
5.12 -0.228536
5.13 -0.228477
5.14 -0.228118
5.15 -0.22745
5.16 -0.226542
5.17 -0.225415
5.18 -0.224083
5.19 -0.222528
5.2 -0.220771
5.21 -0.218813
5.22 -0.216644
5.23 -0.214227
5.24 -0.211541
5.25 -0.208583
5.26 -0.205327
5.27 -0.201736
5.28 -0.197761
5.29 -0.193423
5.3 -0.188709
5.31 -0.183609
5.32 -0.178068
5.33 -0.172155
5.34 -0.165888
5.35 -0.159291
5.36 -0.152365
5.37 -0.145188
5.38 -0.137819
5.39 -0.130312
5.4 -0.122726
5.41 -0.115138
5.42 -0.107616
5.43 -0.100224
5.44 -0.0930348
5.45 -0.0861315
5.46 -0.0795413
5.47 -0.0733078
5.48 -0.0674701
5.49 -0.0621173
5.5 -0.0572029
5.51 -0.0527316
5.52 -0.0486984
5.53 -0.0451414
5.54 -0.0419906
5.55 -0.0392009
5.56 -0.0367336
5.57 -0.0345664
5.58 -0.0326375
5.59 -0.0308798
5.6 -0.0292451
5.61 -0.0276888
5.62 -0.0261629
5.63 -0.0246237
5.64 -0.0230408
5.65 -0.0213898
5.66 -0.0196417
5.67 -0.0178017
5.68 -0.0158719
5.69 -0.0138618
5.7 -0.0117823
5.71 -0.0096671
5.72 -0.00754697
5.73 -0.00545447
5.74 -0.00343363
5.75 -0.00152553
5.76 0.000239839
5.77 0.00182996
5.78 0.00320372
5.79 0.00432015
5.8 0.00518496
5.81 0.00578739
5.82 0.00612007
5.83 0.00615167
5.84 0.00593346
5.85 0.00548353
5.86 0.00482563
5.87 0.00396891
5.88 0.00297024
5.89 0.00187036
5.9 0.000706457
5.91 -0.000483215
5.92 -0.00165552
5.93 -0.00277647
5.94 -0.003817
5.95 -0.00474568
5.96 -0.00553367
5.97 -0.0061806
5.98 -0.00667998
5.99 -0.00702889
6 -0.00721405
6.01 -0.00726757
6.02 -0.00720348
6.03 -0.00703847
6.04 -0.00678227
6.05 -0.00646511
6.06 -0.0061064
6.07 -0.0057212
6.08 -0.00532047
6.09 -0.0049121
6.1 -0.00449693
6.11 -0.00406899
6.12 -0.00361341
6.13 -0.00310442
6.14 -0.00251779
6.15 -0.00182063
6.16 -0.000972133
6.17 0.000101562
6.18 0.00142286
6.19 0.00303814
6.2 0.00499336
6.21 0.00739042
6.22 0.0102316
6.23 0.0135411
6.24 0.0173457
6.25 0.021715
6.26 0.0266419
6.27 0.03209
6.28 0.0380458
6.29 0.0445104
6.3 0.0514618
6.31 0.058803
6.32 0.0664775
6.33 0.0744246
6.34 0.0825857
6.35 0.0908479
6.36 0.0991317
6.37 0.107356
6.38 0.115412
6.39 0.123229
6.4 0.130737
6.41 0.137873
6.42 0.144533
6.43 0.150676
6.44 0.156294
6.45 0.161362
6.46 0.165831
6.47 0.169673
6.48 0.172953
6.49 0.175689
6.5 0.177895
6.51 0.179549
6.52 0.180761
6.53 0.181571
6.54 0.182022
6.55 0.182117
6.56 0.18194
6.57 0.181532
6.58 0.180927
6.59 0.180136
6.6 0.179187
6.61 0.178102
6.62 0.176885
6.63 0.175525
6.64 0.174006
6.65 0.172323
6.66 0.170456
6.67 0.168377
6.68 0.166027
6.69 0.16341
6.7 0.1605
6.71 0.157275
6.72 0.153666
6.73 0.149702
6.74 0.145382
6.75 0.14071
6.76 0.135663
6.77 0.130279
6.78 0.124607
6.79 0.118685
6.8 0.112548
6.81 0.106253
6.82 0.099876
6.83 0.0934799
6.84 0.0871313
6.85 0.0809195
6.86 0.0749001
6.87 0.0691347
6.88 0.0636807
6.89 0.0586485
6.9 0.0540431
6.91 0.0498928
6.92 0.0462245
6.93 0.0431079
6.94 0.0405287
6.95 0.0384541
6.96 0.0368715
6.97 0.0357878
6.98 0.0351834
6.99 0.0349766
7 0.0351259
7.01 0.0355924
7.02 0.0363505
7.03 0.0373107
7.04 0.0384252
7.05 0.039648
7.06 0.0409396
7.07 0.042248
7.08 0.0435391
7.09 0.0447843
7.1 0.0459519
7.11 0.0470254
7.12 0.0479983
7.13 0.0488647
7.14 0.0496159
7.15 0.050251
7.16 0.0507852
7.17 0.0512252
7.18 0.0515758
7.19 0.051836
7.2 0.0520223
7.21 0.0521376
7.22 0.0521823
7.23 0.0521421
7.24 0.0520186
7.25 0.0518022
7.26 0.0514787
7.27 0.0510159
7.28 0.0503965
7.29 0.0496055
7.3 0.0486201
7.31 0.0474015
7.32 0.0459171
7.33 0.0441686
7.34 0.0421396
7.35 0.0398101
7.36 0.0371395
7.37 0.034167
7.38 0.0308978
7.39 0.0273433
7.4 0.0234853
7.41 0.0193874
7.42 0.0150842
7.43 0.0106118
7.44 0.00600133
7.45 0.00131138
7.46 -0.00340517
7.47 -0.00810099
7.48 -0.0127211
7.49 -0.0172084
7.5 -0.021528
7.51 -0.0256416
7.52 -0.0295081
7.53 -0.0330679
7.54 -0.0363339
7.55 -0.0392931
7.56 -0.0419392
7.57 -0.0442275
7.58 -0.04621
7.59 -0.0479057
7.6 -0.0493348
7.61 -0.0504994
7.62 -0.0514473
7.63 -0.0522226
7.64 -0.0528584
7.65 -0.0533831
7.66 -0.0538336
7.67 -0.0542489
7.68 -0.0546557
7.69 -0.0550786
7.7 -0.0555425
7.71 -0.0560577
7.72 -0.0566319
7.73 -0.0572684
7.74 -0.0579738
7.75 -0.0587318
7.76 -0.0595311
7.77 -0.0603574
7.78 -0.0611939
7.79 -0.062019
7.8 -0.0628139
7.81 -0.0635608
7.82 -0.0642377
7.83 -0.0648261
7.84 -0.0653214
7.85 -0.0657162
7.86 -0.0660037
7.87 -0.0661744
7.88 -0.0662474
7.89 -0.0662319
7.9 -0.0661405
7.91 -0.0659823
7.92 -0.0657868
7.93 -0.0655748
7.94 -0.0653673
7.95 -0.0651907
7.96 -0.065067
7.97 -0.0650131
7.98 -0.065045
7.99 -0.0651838
8 -0.065442
8.01 -0.0658156
8.02 -0.0663052
8.03 -0.0669113
8.04 -0.067635
8.05 -0.0684507
8.06 -0.0693439
8.07 -0.0702979
8.08 -0.0712976
8.09 -0.0723149
8.1 -0.07333
8.11 -0.0743241
8.12 -0.0752735
8.13 -0.0761638
8.14 -0.0769855
8.15 -0.0777303
8.16 -0.0783876
8.17 -0.0789561
8.18 -0.079447
8.19 -0.0798679
8.2 -0.080228
8.21 -0.0805392
8.22 -0.0808244
8.23 -0.0811005
8.24 -0.0813846
8.25 -0.0816994
8.26 -0.0820577
8.27 -0.0824712
8.28 -0.0829484
8.29 -0.0835021
8.3 -0.0841269
8.31 -0.0848133
8.32 -0.0855505
8.33 -0.0863231
8.34 -0.0871054
8.35 -0.0878681
8.36 -0.0885809
8.37 -0.0892064
8.38 -0.0896926
8.39 -0.0900146
8.4 -0.0901367
8.41 -0.0900245
8.42 -0.0896006
8.43 -0.0888749
8.44 -0.0878269
8.45 -0.0864407
8.46 -0.0846659
8.47 -0.0825262
8.48 -0.080044
8.49 -0.0772336
8.5 -0.074095
8.51 -0.0706616
8.52 -0.0669949
8.53 -0.0631364
8.54 -0.0591281
8.55 -0.0550195
8.56 -0.0508783
8.57 -0.046756
8.58 -0.0427031
8.59 -0.0387937
8.6 -0.0350591
8.61 -0.0315383
8.62 -0.0282651
8.63 -0.0253023
8.64 -0.0226521
8.65 -0.0203144
8.66 -0.0182941
8.67 -0.0166131
8.68 -0.0152612
8.69 -0.0141963
8.7 -0.0133973
8.71 -0.012847
8.72 -0.0125292
8.73 -0.0123847
8.74 -0.0123819
8.75 -0.0124898
8.76 -0.0126869
8.77 -0.0129306
8.78 -0.0131974
8.79 -0.013468
8.8 -0.0137241
8.81 -0.0139554
8.82 -0.0141577
8.83 -0.0143306
8.84 -0.0144762
8.85 -0.0146036
8.86 -0.0147256
8.87 -0.0148547
8.88 -0.0150058
8.89 -0.0151979
8.9 -0.0154405
8.91 -0.0157444
8.92 -0.0161175
8.93 -0.016577
8.94 -0.0171111
8.95 -0.0177153
8.96 -0.0183809
8.97 -0.0190986
8.98 -0.0198436
8.99 -0.020592
9 -0.0213187
9.01 -0.0219901
9.02 -0.0225713
9.03 -0.0230375
9.04 -0.0233601
9.05 -0.0235041
9.06 -0.0234268
9.07 -0.02313
9.08 -0.0225991
9.09 -0.0218244
9.1 -0.020764
9.11 -0.0194613
9.12 -0.0179267
9.13 -0.0161769
9.14 -0.0142138
9.15 -0.0120862
9.16 -0.00983422
9.17 -0.00749418
9.18 -0.00510395
9.19 -0.00271164
9.2 -0.000360001
9.21 0.00191285
9.22 0.00406489
9.23 0.00604823
9.24 0.00785142
9.25 0.00945419
9.26 0.0108415
9.27 0.0119714
9.28 0.0128791
9.29 0.0135726
9.3 0.014066
9.31 0.0143601
9.32 0.0145009
9.33 0.0145258
9.34 0.0144688
9.35 0.0143655
9.36 0.0142609
9.37 0.0141946
9.38 0.0142017
9.39 0.0143206
9.4 0.0145941
9.41 0.015032
9.42 0.0156516
9.43 0.016466
9.44 0.0175111
9.45 0.0187546
9.46 0.0201889
9.47 0.0218014
9.48 0.0235921
9.49 0.0255211
9.5 0.0275578
9.51 0.0296752
9.52 0.0318476
9.53 0.0340417
9.54 0.0362283
9.55 0.0383842
9.56 0.0404867
9.57 0.0425131
9.58 0.0444602
9.59 0.0463232
9.6 0.0481019
9.61 0.0497919
9.62 0.0514175
9.63 0.0529947
9.64 0.0545425
9.65 0.0560852
9.66 0.0576508
9.67 0.0592641
9.68 0.0609491
9.69 0.0627381
9.7 0.0646529
9.71 0.066701
9.72 0.0688928
9.73 0.0712404
9.74 0.0737515
9.75 0.0764004
9.76 0.0791723
9.77 0.0820467
9.78 0.0850028
9.79 0.0879929
9.8 0.0909794
9.81 0.0939216
9.82 0.0967596
9.83 0.0994509
9.84 0.101954
9.85 0.104227
9.86 0.106203
9.87 0.107842
9.88 0.109135
9.89 0.110058
9.9 0.110571
9.91 0.110638
9.92 0.110299
9.93 0.10956
9.94 0.108427
9.95 0.106869
9.96 0.104969
9.97 0.102758
9.98 0.100268
9.99 0.0975115
10 0.0945559
10.01 0.0914483
10.02 0.088228
10.03 0.0849292
10.04 0.0815951
10.05 0.0782614
10.06 0.0749549
10.07 0.0717014
10.08 0.0685246
10.09 0.0654292
10.1 0.0624207
10.11 0.0595009
10.12 0.0566764
10.13 0.0539254
10.14 0.0512357
10.15 0.048593
10.16 0.0459828
10.17 0.0433825
10.18 0.0407741
10.19 0.0381416
10.2 0.0354655
10.21 0.0327325
10.22 0.0299366
10.23 0.0270721
10.24 0.0241329
10.25 0.0211168
10.26 0.0180371
10.27 0.014902
10.28 0.0117226
10.29 0.00851072
10.3 0.00528825
10.31 0.00207216
10.32 -0.00112013
10.33 -0.0042635
10.34 -0.00734347
10.35 -0.0103462
10.36 -0.0132586
10.37 -0.0160591
10.38 -0.0187407
10.39 -0.021305
10.4 -0.0237496
10.41 -0.026068
10.42 -0.0282572
10.43 -0.0303348
10.44 -0.0323074
10.45 -0.0341815
10.46 -0.035955
10.47 -0.0376505
10.48 -0.0392759
10.49 -0.0408383
10.5 -0.0423365
10.51 -0.043781
10.52 -0.0451749
10.53 -0.0465177
10.54 -0.0478011
10.55 -0.0490207
10.56 -0.0501731
10.57 -0.0512494
10.58 -0.0522345
10.59 -0.0531111
10.6 -0.0538778
10.61 -0.0545244
10.62 -0.0550395
10.63 -0.055397
10.64 -0.055611
10.65 -0.0556792
10.66 -0.0556021
10.67 -0.0553648
10.68 -0.0549915
10.69 -0.0544965
10.7 -0.0538936
10.71 -0.053192
10.72 -0.0524173
10.73 -0.0515959
10.74 -0.0507496
10.75 -0.0499017
10.76 -0.0490788
10.77 -0.0483009
10.78 -0.0475864
10.79 -0.0469525
10.8 -0.0464251
10.81 -0.0460001
10.82 -0.0456813
10.83 -0.0454684
10.84 -0.0453697
10.85 -0.0453626
10.86 -0.045431
10.87 -0.0455578
10.88 -0.0457246
10.89 -0.0459034
10.9 -0.0460681
10.91 -0.0461945
10.92 -0.0462535
10.93 -0.0462151
10.94 -0.0460666
10.95 -0.0457916
10.96 -0.0453745
10.97 -0.0447882
10.98 -0.0440508
10.99 -0.0431653
11 -0.0421396
11.01 -0.0409715
11.02 -0.039697
11.03 -0.038342
11.04 -0.036933
11.05 -0.0354999
11.06 -0.0340807
11.07 -0.0327085
11.08 -0.031415
11.09 -0.0302387
11.1 -0.0292178
11.11 -0.0283643
11.12 -0.0276972
11.13 -0.0272351
11.14 -0.0270124
11.15 -0.0270014
11.16 -0.0271973
11.17 -0.0275891
11.18 -0.0281824
11.19 -0.0289294
11.2 -0.0297987
11.21 -0.0307586
11.22 -0.0317764
11.23 -0.0328067
11.24 -0.0338092
11.25 -0.0347473
11.26 -0.0355776
11.27 -0.0362571
11.28 -0.0367688
11.29 -0.0370897
11.3 -0.0371971
11.31 -0.037052
11.32 -0.0366796
11.33 -0.0360819
11.34 -0.0352666
11.35 -0.0342207
11.36 -0.0329921
11.37 -0.0316088
11.38 -0.030099
11.39 -0.0284871
11.4 -0.0268159
11.41 -0.025124
11.42 -0.023444
11.43 -0.0218118
11.44 -0.0202637
11.45 -0.0188192
11.46 -0.0174986
11.47 -0.0163215
11.48 -0.0153168
11.49 -0.0144693
11.5 -0.0137783
11.51 -0.0132385
11.52 -0.0128586
11.53 -0.0126044
11.54 -0.012456
11.55 -0.0123937
11.56 -0.0124007
11.57 -0.0124485
11.58 -0.0125126
11.59 -0.0125735
11.6 -0.0126115
11.61 -0.0126087
11.62 -0.0125576
11.63 -0.0124521
11.64 -0.0122891
11.65 -0.0120658
11.66 -0.0117977
11.67 -0.0114961
11.68 -0.0111759
11.69 -0.0108572
11.7 -0.0105626
11.71 -0.0103133
11.72 -0.0101308
11.73 -0.0100475
11.74 -0.0100814
11.75 -0.010244
11.76 -0.0105488
11.77 -0.011016
11.78 -0.011656
11.79 -0.0124537
11.8 -0.0134042
11.81 -0.0145009
11.82 -0.0157401
11.83 -0.017083
11.84 -0.0185059
11.85 -0.0199824
11.86 -0.0214826
11.87 -0.0229686
11.88 -0.0244088
11.89 -0.0257725
11.9 -0.0270157
11.91 -0.0281124
11.92 -0.0290451
11.93 -0.0297937
