[DEFAULT]

version = diffpy.pdfgetx-2.2.1

# input and output specifications
dataformat = twotheta
inputfile = Synthetic_CSH_CSH_pdf_ramp_700_01_normalized.chi
backgroundfiles = quartz_030degC_normalized.chi
outputtype = gr

# PDF calculation setup
mode = xray
wavelength = 0.2113
twothetazero = 0
composition = CaO SiO2
bgscales = 1.0
rpoly = 0.9
qmaxinst = 23.7031
qmin = 0.5
qmax = 20
rmin = 0
rmax = 60
rstep = 0.01

# End of config --------------------------------------------------------------

#### start data
#S 1
#L r(Å)  G(Å$^{-2}$)
0 0
0.01 -0.00315732
0.02 -0.0061937
0.03 -0.00900686
0.04 -0.0115015
0.05 -0.0135344
0.06 -0.0150574
0.07 -0.0160349
0.08 -0.0164318
0.09 -0.0161837
0.1 -0.0152982
0.11 -0.0138513
0.12 -0.0118891
0.13 -0.00946013
0.14 -0.00663044
0.15 -0.00354729
0.16 -0.000315349
0.17 0.00295439
0.18 0.00611797
0.19 0.00906202
0.2 0.0116794
0.21 0.0138716
0.22 0.0154798
0.23 0.0164668
0.24 0.0168033
0.25 0.0164595
0.26 0.0153701
0.27 0.0135578
0.28 0.0111174
0.29 0.00811116
0.3 0.00460473
0.31 0.000690041
0.32 -0.00345865
0.33 -0.00770981
0.34 -0.0119229
0.35 -0.0159012
0.36 -0.0195111
0.37 -0.0226107
0.38 -0.0250657
0.39 -0.026644
0.4 -0.0272907
0.41 -0.0269498
0.42 -0.0255571
0.43 -0.0229773
0.44 -0.0192026
0.45 -0.0143323
0.46 -0.00840632
0.47 -0.00144887
0.48 0.00649853
0.49 0.0152086
0.5 0.0245494
0.51 0.0343756
0.52 0.044551
0.53 0.0548379
0.54 0.0650646
0.55 0.0750595
0.56 0.0845845
0.57 0.0934933
0.58 0.101656
0.59 0.108941
0.6 0.115142
0.61 0.12016
0.62 0.124002
0.63 0.126621
0.64 0.127935
0.65 0.127856
0.66 0.12655
0.67 0.124057
0.68 0.120428
0.69 0.115591
0.7 0.109802
0.71 0.103155
0.72 0.0957516
0.73 0.0876225
0.74 0.078946
0.75 0.0698418
0.76 0.0604024
0.77 0.0506986
0.78 0.0408235
0.79 0.0308572
0.8 0.020852
0.81 0.0108514
0.82 0.000892618
0.83 -0.00900776
0.84 -0.01884
0.85 -0.028601
0.86 -0.0382845
0.87 -0.0479085
0.88 -0.057481
0.89 -0.0670091
0.9 -0.0764925
0.91 -0.0859338
0.92 -0.0953266
0.93 -0.104656
0.94 -0.113888
0.95 -0.122985
0.96 -0.131911
0.97 -0.140616
0.98 -0.149027
0.99 -0.157049
1 -0.164647
1.01 -0.171754
1.02 -0.178297
1.03 -0.184117
1.04 -0.189245
1.05 -0.193637
1.06 -0.197258
1.07 -0.199983
1.08 -0.201889
1.09 -0.203014
1.1 -0.203392
1.11 -0.203018
1.12 -0.20199
1.13 -0.200447
1.14 -0.198493
1.15 -0.196237
1.16 -0.193822
1.17 -0.191413
1.18 -0.18915
1.19 -0.187173
1.2 -0.185695
1.21 -0.184787
1.22 -0.184556
1.23 -0.185088
1.24 -0.186566
1.25 -0.188947
1.26 -0.192212
1.27 -0.196338
1.28 -0.201335
1.29 -0.207077
1.3 -0.213382
1.31 -0.220095
1.32 -0.227035
1.33 -0.233951
1.34 -0.240593
1.35 -0.246712
1.36 -0.252038
1.37 -0.256127
1.38 -0.258846
1.39 -0.259949
1.4 -0.259203
1.41 -0.2561
1.42 -0.250657
1.43 -0.242794
1.44 -0.232413
1.45 -0.219218
1.46 -0.203276
1.47 -0.184816
1.48 -0.163944
1.49 -0.140707
1.5 -0.115249
1.51 -0.0880701
1.52 -0.0594804
1.53 -0.0298163
1.54 0.000567811
1.55 0.0311174
1.56 0.061403
1.57 0.0909853
1.58 0.119209
1.59 0.145703
1.6 0.170082
1.61 0.191954
1.62 0.210653
1.63 0.225888
1.64 0.237586
1.65 0.245535
1.66 0.249355
1.67 0.248736
1.68 0.244072
1.69 0.235404
1.7 0.222773
1.71 0.205887
1.72 0.185538
1.73 0.162006
1.74 0.135615
1.75 0.106441
1.76 0.0752194
1.77 0.0424337
1.78 0.00852253
1.79 -0.026089
1.8 -0.060854
1.81 -0.0953044
1.82 -0.129028
1.83 -0.161555
1.84 -0.192398
1.85 -0.221376
1.86 -0.248225
1.87 -0.272682
1.88 -0.294232
1.89 -0.313112
1.9 -0.329257
1.91 -0.34265
1.92 -0.352952
1.93 -0.360557
1.94 -0.36564
1.95 -0.368341
1.96 -0.368628
1.97 -0.3668
1.98 -0.363191
1.99 -0.358003
2 -0.351371
2.01 -0.343473
2.02 -0.334624
2.03 -0.324984
2.04 -0.314684
2.05 -0.303791
2.06 -0.292476
2.07 -0.280794
2.08 -0.268776
2.09 -0.256378
2.1 -0.243615
2.11 -0.230448
2.12 -0.216817
2.13 -0.202588
2.14 -0.187687
2.15 -0.172066
2.16 -0.155647
2.17 -0.138307
2.18 -0.119948
2.19 -0.100629
2.2 -0.0803463
2.21 -0.059104
2.22 -0.0368609
2.23 -0.013842
2.24 0.00982663
2.25 0.0339871
2.26 0.0584626
2.27 0.0829635
2.28 0.107234
2.29 0.131003
2.3 0.153874
2.31 0.175529
2.32 0.195717
2.33 0.214142
2.34 0.230373
2.35 0.244007
2.36 0.255015
2.37 0.26319
2.38 0.268295
2.39 0.269817
2.4 0.268111
2.41 0.263154
2.42 0.254975
2.43 0.243227
2.44 0.228458
2.45 0.210921
2.46 0.190855
2.47 0.168349
2.48 0.143885
2.49 0.117952
2.5 0.0909335
2.51 0.0632149
2.52 0.0352767
2.53 0.00758709
2.54 -0.0194521
2.55 -0.0454216
2.56 -0.0697406
2.57 -0.0922423
2.58 -0.112641
2.59 -0.130695
2.6 -0.145819
2.61 -0.158182
2.62 -0.16775
2.63 -0.174498
2.64 -0.178172
2.65 -0.179008
2.66 -0.177308
2.67 -0.173258
2.68 -0.166969
2.69 -0.158698
2.7 -0.148943
2.71 -0.138021
2.72 -0.126251
2.73 -0.113971
2.74 -0.101616
2.75 -0.0895103
2.76 -0.0779588
2.77 -0.0674052
2.78 -0.0580222
2.79 -0.0500074
2.8 -0.0435346
2.81 -0.0389237
2.82 -0.0361875
2.83 -0.035266
2.84 -0.0361494
2.85 -0.038895
2.86 -0.0434342
2.87 -0.0494629
2.88 -0.0568094
2.89 -0.0652972
2.9 -0.0747597
2.91 -0.0848096
2.92 -0.0951924
2.93 -0.105649
2.94 -0.115856
2.95 -0.125555
2.96 -0.134514
2.97 -0.142513
2.98 -0.149211
2.99 -0.154475
3 -0.158232
3.01 -0.160379
3.02 -0.160726
3.03 -0.159188
3.04 -0.155924
3.05 -0.150969
3.06 -0.144344
3.07 -0.135997
3.08 -0.126264
3.09 -0.115286
3.1 -0.103224
3.11 -0.0901408
3.12 -0.0763656
3.13 -0.0620958
3.14 -0.0475178
3.15 -0.0328203
3.16 -0.018213
3.17 -0.00386098
3.18 0.0100902
3.19 0.0234667
3.2 0.0361254
3.21 0.0480333
3.22 0.0591278
3.23 0.0693415
3.24 0.0785642
3.25 0.0869155
3.26 0.0944203
3.27 0.101121
3.28 0.106972
3.29 0.112161
3.3 0.116779
3.31 0.120917
3.32 0.124641
3.33 0.128088
3.34 0.131373
3.35 0.13459
3.36 0.137833
3.37 0.141197
3.38 0.144746
3.39 0.148532
3.4 0.152608
3.41 0.157034
3.42 0.161784
3.43 0.166852
3.44 0.172221
3.45 0.177896
3.46 0.183787
3.47 0.189836
3.48 0.195977
3.49 0.202132
3.5 0.208207
3.51 0.21412
3.52 0.219787
3.53 0.225097
3.54 0.229948
3.55 0.234298
3.56 0.238079
3.57 0.241211
3.58 0.243572
3.59 0.245209
3.6 0.246096
3.61 0.246222
3.62 0.245468
3.63 0.243959
3.64 0.241727
3.65 0.238805
3.66 0.235172
3.67 0.230934
3.68 0.226182
3.69 0.220983
3.7 0.215386
3.71 0.209473
3.72 0.20335
3.73 0.197086
3.74 0.190748
3.75 0.18441
3.76 0.178131
3.77 0.171959
3.78 0.165931
3.79 0.160108
3.8 0.154483
3.81 0.149061
3.82 0.14384
3.83 0.138828
3.84 0.133986
3.85 0.129276
3.86 0.124662
3.87 0.120105
3.88 0.115551
3.89 0.110952
3.9 0.106263
3.91 0.101436
3.92 0.0964112
3.93 0.0911762
3.94 0.0857082
3.95 0.0799932
3.96 0.0739886
3.97 0.0677424
3.98 0.061277
3.99 0.0546253
4 0.0478213
4.01 0.0409418
4.02 0.0340611
4.03 0.0272563
4.04 0.0206315
4.05 0.0142982
4.06 0.00833653
4.07 0.0028429
4.08 -0.00206271
4.09 -0.00621533
4.1 -0.00960241
4.11 -0.0121471
4.12 -0.0137827
4.13 -0.0142962
4.14 -0.0137941
4.15 -0.0122583
4.16 -0.00968425
4.17 -0.00596742
4.18 -0.00122337
4.19 0.00445151
4.2 0.0109878
4.21 0.0183527
4.22 0.0264264
4.23 0.0350305
4.24 0.0440385
4.25 0.0533202
4.26 0.0627206
4.27 0.0720674
4.28 0.0812173
4.29 0.0900303
4.3 0.0982771
4.31 0.105893
4.32 0.112768
4.33 0.118804
4.34 0.123797
4.35 0.127748
4.36 0.130652
4.37 0.132482
4.38 0.133149
4.39 0.132668
4.4 0.131163
4.41 0.128684
4.42 0.125268
4.43 0.120943
4.44 0.115911
4.45 0.110276
4.46 0.104147
4.47 0.0975928
4.48 0.0908027
4.49 0.0838877
4.5 0.0769551
4.51 0.070127
4.52 0.0635009
4.53 0.057151
4.54 0.0511432
4.55 0.045566
4.56 0.040463
4.57 0.0358227
4.58 0.0316514
4.59 0.0279603
4.6 0.0247581
4.61 0.0219549
4.62 0.0195054
4.63 0.0173562
4.64 0.0154739
4.65 0.0137465
4.66 0.012105
4.67 0.0104793
4.68 0.00878595
4.69 0.00695433
4.7 0.00492731
4.71 0.00265163
4.72 5.37094e-05
4.73 -0.00290843
4.74 -0.00623672
4.75 -0.00994727
4.76 -0.0140633
4.77 -0.0186089
4.78 -0.0235238
4.79 -0.0287856
4.8 -0.0343657
4.81 -0.0402651
4.82 -0.0463932
4.83 -0.0527044
4.84 -0.0591508
4.85 -0.0656881
4.86 -0.0722529
4.87 -0.0787957
4.88 -0.0852725
4.89 -0.0916304
4.9 -0.0978275
4.91 -0.103842
4.92 -0.10965
4.93 -0.115219
4.94 -0.120516
4.95 -0.12556
4.96 -0.130346
4.97 -0.134873
4.98 -0.139108
4.99 -0.143096
5 -0.146845
5.01 -0.150365
5.02 -0.153638
5.03 -0.156692
5.04 -0.159543
5.05 -0.162193
5.06 -0.164629
5.07 -0.166852
5.08 -0.16887
5.09 -0.170677
5.1 -0.172252
5.11 -0.173562
5.12 -0.174619
5.13 -0.175405
5.14 -0.175901
5.15 -0.176039
5.16 -0.175848
5.17 -0.175313
5.18 -0.174418
5.19 -0.173106
5.2 -0.171403
5.21 -0.169319
5.22 -0.166857
5.23 -0.163992
5.24 -0.160745
5.25 -0.157162
5.26 -0.153268
5.27 -0.149079
5.28 -0.144618
5.29 -0.139956
5.3 -0.135133
5.31 -0.130194
5.32 -0.12518
5.33 -0.120155
5.34 -0.115165
5.35 -0.110255
5.36 -0.105491
5.37 -0.100907
5.38 -0.0965343
5.39 -0.0924057
5.4 -0.0885744
5.41 -0.0850609
5.42 -0.0818598
5.43 -0.0789797
5.44 -0.076439
5.45 -0.0742526
5.46 -0.0723736
5.47 -0.0707857
5.48 -0.0694699
5.49 -0.0684303
5.5 -0.0675964
5.51 -0.0669344
5.52 -0.0664082
5.53 -0.0659878
5.54 -0.0656191
5.55 -0.0652609
5.56 -0.0648755
5.57 -0.0644178
5.58 -0.0638494
5.59 -0.0631449
5.6 -0.0622779
5.61 -0.0612153
5.62 -0.0599239
5.63 -0.0584123
5.64 -0.0566726
5.65 -0.0546995
5.66 -0.0524639
5.67 -0.0500084
5.68 -0.0473449
5.69 -0.0444897
5.7 -0.0414431
5.71 -0.0382498
5.72 -0.0349413
5.73 -0.0315463
5.74 -0.0280928
5.75 -0.0246194
5.76 -0.0211611
5.77 -0.0177492
5.78 -0.0144195
5.79 -0.0112118
5.8 -0.00814328
5.81 -0.00523746
5.82 -0.00251757
5.83 -3.05231e-05
5.84 0.00223889
5.85 0.0042818
5.86 0.00609319
5.87 0.00764143
5.88 0.00895521
5.89 0.0100487
5.9 0.0109333
5.91 0.0116073
5.92 0.0120973
5.93 0.0124372
5.94 0.0126499
5.95 0.0127561
5.96 0.0127824
5.97 0.0127655
5.98 0.0127318
5.99 0.0127073
6 0.0127253
6.01 0.0128059
6.02 0.0129698
6.03 0.0132352
6.04 0.0136353
6.05 0.0141711
6.06 0.0148484
6.07 0.0156727
6.08 0.0166609
6.09 0.0178073
6.1 0.019098
6.11 0.0205264
6.12 0.0220901
6.13 0.0237819
6.14 0.0255758
6.15 0.0274581
6.16 0.0294158
6.17 0.0314398
6.18 0.0335064
6.19 0.0356026
6.2 0.0377166
6.21 0.039838
6.22 0.0419567
6.23 0.0440665
6.24 0.0461633
6.25 0.0482439
6.26 0.0503092
6.27 0.0523626
6.28 0.0544084
6.29 0.0564522
6.3 0.0585023
6.31 0.0605661
6.32 0.0626514
6.33 0.0647662
6.34 0.066923
6.35 0.0691229
6.36 0.0713702
6.37 0.0736675
6.38 0.0760221
6.39 0.0784261
6.4 0.080874
6.41 0.0833592
6.42 0.0858747
6.43 0.0884064
6.44 0.0909394
6.45 0.0934593
6.46 0.0959478
6.47 0.0983834
6.48 0.100753
6.49 0.10304
6.5 0.105228
6.51 0.107286
6.52 0.109217
6.53 0.111011
6.54 0.112661
6.55 0.114142
6.56 0.115468
6.57 0.116647
6.58 0.117681
6.59 0.118567
6.6 0.119321
6.61 0.119964
6.62 0.12051
6.63 0.12097
6.64 0.121361
6.65 0.121706
6.66 0.12202
6.67 0.122317
6.68 0.12261
6.69 0.122909
6.7 0.12322
6.71 0.123547
6.72 0.123891
6.73 0.124244
6.74 0.124598
6.75 0.12494
6.76 0.125251
6.77 0.12551
6.78 0.125698
6.79 0.125792
6.8 0.125759
6.81 0.125564
6.82 0.125196
6.83 0.124632
6.84 0.123846
6.85 0.122789
6.86 0.121478
6.87 0.119903
6.88 0.118058
6.89 0.115903
6.9 0.113477
6.91 0.110795
6.92 0.107871
6.93 0.104705
6.94 0.101333
6.95 0.0977986
6.96 0.0941312
6.97 0.0903605
6.98 0.0865263
6.99 0.0826731
7 0.078836
7.01 0.0750512
7.02 0.0713648
7.03 0.0677971
7.04 0.0643724
7.05 0.0611111
7.06 0.058056
7.07 0.0551953
7.08 0.0525296
7.09 0.0500573
7.1 0.0477901
7.11 0.0457045
7.12 0.0437728
7.13 0.0419738
7.14 0.0402884
7.15 0.038687
7.16 0.0371309
7.17 0.0355909
7.18 0.0340367
7.19 0.0324314
7.2 0.0307523
7.21 0.0289767
7.22 0.0270855
7.23 0.0250424
7.24 0.0228531
7.25 0.0205146
7.26 0.0180266
7.27 0.0153793
7.28 0.0125914
7.29 0.00968532
7.3 0.0066794
7.31 0.00359156
7.32 0.000449387
7.33 -0.00271377
7.34 -0.00587055
7.35 -0.00899167
7.36 -0.012039
7.37 -0.0149925
7.38 -0.0178291
7.39 -0.020528
7.4 -0.0230468
7.41 -0.025391
7.42 -0.027554
7.43 -0.0295304
7.44 -0.0312996
7.45 -0.0328758
7.46 -0.0342764
7.47 -0.0355125
7.48 -0.0365887
7.49 -0.0375213
7.5 -0.0383424
7.51 -0.0390713
7.52 -0.0397265
7.53 -0.0403254
7.54 -0.0408957
7.55 -0.0414544
7.56 -0.0420168
7.57 -0.0426001
7.58 -0.0432132
7.59 -0.0438626
7.6 -0.0445521
7.61 -0.0452869
7.62 -0.0460619
7.63 -0.0468696
7.64 -0.0477025
7.65 -0.0485511
7.66 -0.0494023
7.67 -0.0502422
7.68 -0.0510581
7.69 -0.0518357
7.7 -0.0525555
7.71 -0.0532117
7.72 -0.0537946
7.73 -0.0542962
7.74 -0.0546969
7.75 -0.0550052
7.76 -0.0552213
7.77 -0.0553469
7.78 -0.0553769
7.79 -0.0553241
7.8 -0.0552014
7.81 -0.0550189
7.82 -0.0547855
7.83 -0.0545153
7.84 -0.0542254
7.85 -0.0539286
7.86 -0.0536379
7.87 -0.0533687
7.88 -0.05313
7.89 -0.0529304
7.9 -0.0527771
7.91 -0.0526834
7.92 -0.052645
7.93 -0.0526619
7.94 -0.0527327
7.95 -0.0528589
7.96 -0.053031
7.97 -0.0532396
7.98 -0.0534763
7.99 -0.0537326
8 -0.0539968
8.01 -0.0542575
8.02 -0.0545049
8.03 -0.0547285
8.04 -0.0549154
8.05 -0.0550615
8.06 -0.055161
8.07 -0.0552091
8.08 -0.0551944
8.09 -0.0551234
8.1 -0.0549972
8.11 -0.0548178
8.12 -0.0545833
8.13 -0.0543028
8.14 -0.0539844
8.15 -0.0536346
8.16 -0.0532593
8.17 -0.0528669
8.18 -0.0524667
8.19 -0.0520654
8.2 -0.0516698
8.21 -0.0512872
8.22 -0.050921
8.23 -0.0505747
8.24 -0.0502503
8.25 -0.0499523
8.26 -0.049677
8.27 -0.0494226
8.28 -0.0491865
8.29 -0.0489665
8.3 -0.0487565
8.31 -0.048551
8.32 -0.0483445
8.33 -0.0481308
8.34 -0.0479031
8.35 -0.0476567
8.36 -0.0473866
8.37 -0.0470872
8.38 -0.0467507
8.39 -0.0463776
8.4 -0.0459652
8.41 -0.0455115
8.42 -0.045008
8.43 -0.0444604
8.44 -0.0438685
8.45 -0.0432322
8.46 -0.0425467
8.47 -0.0418156
8.48 -0.0410413
8.49 -0.0402241
8.5 -0.0393609
8.51 -0.0384516
8.52 -0.0374995
8.53 -0.036504
8.54 -0.0354629
8.55 -0.0343714
8.56 -0.0332341
8.57 -0.0320502
8.58 -0.0308192
8.59 -0.0295334
8.6 -0.0282005
8.61 -0.0268216
8.62 -0.0253985
8.63 -0.0239295
8.64 -0.022422
8.65 -0.0208829
8.66 -0.0193181
8.67 -0.0177341
8.68 -0.0161408
8.69 -0.0145489
8.7 -0.0129685
8.71 -0.0114115
8.72 -0.00989391
8.73 -0.00842377
8.74 -0.00701213
8.75 -0.00566953
8.76 -0.00441977
8.77 -0.00326
8.78 -0.00219724
8.79 -0.00123708
8.8 -0.000396312
8.81 0.000331605
8.82 0.000951813
8.83 0.00146715
8.84 0.00187516
8.85 0.00218453
8.86 0.00241266
8.87 0.00257066
8.88 0.00266939
8.89 0.00272167
8.9 0.00274883
8.91 0.00276604
8.92 0.00278853
8.93 0.00283668
8.94 0.00292286
8.95 0.00305979
8.96 0.00325876
8.97 0.00353889
8.98 0.00390261
8.99 0.00435168
9 0.00488841
9.01 0.0055197
9.02 0.00624202
9.03 0.00704308
9.04 0.00791544
9.05 0.0088519
9.06 0.00984332
9.07 0.0108701
9.08 0.0119189
9.09 0.0129758
9.1 0.014024
9.11 0.0150493
9.12 0.0160391
9.13 0.0169819
9.14 0.0178594
9.15 0.0186672
9.16 0.0194016
9.17 0.0200588
9.18 0.0206307
9.19 0.0211188
9.2 0.0215324
9.21 0.0218769
9.22 0.0221572
9.23 0.0223796
9.24 0.0225616
9.25 0.0227144
9.26 0.0228496
9.27 0.0229804
9.28 0.0231204
9.29 0.023281
9.3 0.0234721
9.31 0.0237087
9.32 0.0239957
9.33 0.0243368
9.34 0.0247356
9.35 0.0251987
9.36 0.0257246
9.37 0.0263061
9.38 0.0269385
9.39 0.0276171
9.4 0.028335
9.41 0.0290781
9.42 0.0298362
9.43 0.0305984
9.44 0.031351
9.45 0.0320829
9.46 0.0327836
9.47 0.0334435
9.48 0.0340465
9.49 0.0345887
9.5 0.0350662
9.51 0.0354748
9.52 0.0358058
9.53 0.0360594
9.54 0.0362425
9.55 0.0363579
9.56 0.0364076
9.57 0.0363949
9.58 0.0363343
9.59 0.036234
9.6 0.0361028
9.61 0.0359485
9.62 0.0357851
9.63 0.0356218
9.64 0.0354677
9.65 0.0353345
9.66 0.0352291
9.67 0.035157
9.68 0.0351236
9.69 0.0351366
9.7 0.0351985
9.71 0.0353068
9.72 0.0354612
9.73 0.0356619
9.74 0.035908
9.75 0.0361902
9.76 0.0365034
9.77 0.0368417
9.78 0.0371999
9.79 0.0375672
9.8 0.0379361
9.81 0.0382991
9.82 0.0386459
9.83 0.0389693
9.84 0.0392631
9.85 0.0395206
9.86 0.0397318
9.87 0.039891
9.88 0.039997
9.89 0.0400461
9.9 0.040032
9.91 0.0399484
9.92 0.0398005
9.93 0.0395877
9.94 0.0393092
9.95 0.0389565
9.96 0.0385405
9.97 0.0380629
9.98 0.0375257
9.99 0.0369242
10 0.0362671
10.01 0.0355594
10.02 0.034804
10.03 0.0340009
10.04 0.033155
10.05 0.0322729
10.06 0.0313584
10.07 0.0304136
10.08 0.0294412
10.09 0.0284478
10.1 0.0274367
10.11 0.0264107
10.12 0.0253716
10.13 0.024324
10.14 0.02327
10.15 0.0222115
10.16 0.0211497
10.17 0.0200859
10.18 0.0190207
10.19 0.017954
10.2 0.016885
10.21 0.0158124
10.22 0.0147348
10.23 0.0136499
10.24 0.0125549
10.25 0.0114455
10.26 0.0103198
10.27 0.00917456
10.28 0.00800608
10.29 0.00680708
10.3 0.00557805
10.31 0.00431627
10.32 0.00301949
10.33 0.0016809
10.34 0.000303321
10.35 -0.00111234
10.36 -0.00256534
10.37 -0.00405712
10.38 -0.00558346
10.39 -0.00713814
10.4 -0.00871636
10.41 -0.010313
10.42 -0.0119207
10.43 -0.0135301
10.44 -0.0151332
10.45 -0.0167208
10.46 -0.0182793
10.47 -0.0198021
10.48 -0.02128
10.49 -0.0227042
10.5 -0.0240568
10.51 -0.0253357
10.52 -0.0265359
10.53 -0.0276515
10.54 -0.0286689
10.55 -0.029587
10.56 -0.0304098
10.57 -0.0311369
10.58 -0.0317642
10.59 -0.0322901
10.6 -0.0327286
10.61 -0.0330849
10.62 -0.0333645
10.63 -0.0335671
10.64 -0.0337119
10.65 -0.033808
10.66 -0.0338646
10.67 -0.0338886
10.68 -0.0338943
10.69 -0.0338915
10.7 -0.0338892
10.71 -0.0338969
10.72 -0.0339229
10.73 -0.0339726
10.74 -0.034051
10.75 -0.0341639
10.76 -0.0343156
10.77 -0.0345034
10.78 -0.034727
10.79 -0.0349851
10.8 -0.035278
10.81 -0.0355967
10.82 -0.0359358
10.83 -0.0362893
10.84 -0.0366504
10.85 -0.0370097
10.86 -0.0373595
10.87 -0.037692
10.88 -0.0379961
10.89 -0.0382639
10.9 -0.03849
10.91 -0.0386681
10.92 -0.0387891
10.93 -0.0388449
10.94 -0.0388374
10.95 -0.0387643
10.96 -0.0386228
10.97 -0.0384045
10.98 -0.0381203
10.99 -0.0377725
11 -0.0373646
11.01 -0.036894
11.02 -0.0363737
11.03 -0.0358115
11.04 -0.0352145
11.05 -0.0345888
11.06 -0.033945
11.07 -0.0332934
11.08 -0.0326426
11.09 -0.032002
11.1 -0.0313822
11.11 -0.0307897
11.12 -0.0302313
11.13 -0.0297142
11.14 -0.0292497
11.15 -0.0288358
11.16 -0.0284749
11.17 -0.0281684
11.18 -0.0279234
11.19 -0.0277314
11.2 -0.0275878
11.21 -0.027488
11.22 -0.0274287
11.23 -0.0273994
11.24 -0.0273892
11.25 -0.0273882
11.26 -0.0273849
11.27 -0.0273656
11.28 -0.027319
11.29 -0.0272335
11.3 -0.0270965
11.31 -0.0268883
11.32 -0.0266063
11.33 -0.0262419
11.34 -0.0257878
11.35 -0.0252239
11.36 -0.024558
11.37 -0.0237903
11.38 -0.0229215
11.39 -0.0219448
11.4 -0.0208709
11.41 -0.0197131
11.42 -0.0184814
11.43 -0.0171843
11.44 -0.0158365
11.45 -0.014459
11.46 -0.0130682
11.47 -0.0116815
11.48 -0.0103217
11.49 -0.00900499
11.5 -0.00774805
11.51 -0.00656663
11.52 -0.00548995
11.53 -0.00452049
11.54 -0.00366669
11.55 -0.00293611
11.56 -0.0023473
11.57 -0.001896
11.58 -0.0015733
11.59 -0.00137463
11.6 -0.00129943
11.61 -0.00133852
11.62 -0.00146764
11.63 -0.00167147
11.64 -0.00193395
11.65 -0.00223786
11.66 -0.00255676
11.67 -0.00287126
11.68 -0.00316233
11.69 -0.00340329
11.7 -0.00358097
11.71 -0.00368179
11.72 -0.00369388
11.73 -0.00359704
11.74 -0.00338981
11.75 -0.00307583
11.76 -0.00265668
11.77 -0.00213123
11.78 -0.00150733
11.79 -0.000806561
11.8 -4.38794e-05
11.81 0.000764069
11.82 0.00159735
11.83 0.00242977
11.84 0.00323993
11.85 0.00400642
11.86 0.00469603
11.87 0.00529564
11.88 0.00578904
11.89 0.0061616
11.9 0.00638643
11.91 0.00646167
