[DEFAULT]

version = diffpy.pdfgetx-2.2.1

# input and output specifications
dataformat = twotheta
inputfile = Synthetic_CSH_CSH_pdf_ramp_900_06_normalized.chi
backgroundfiles = quartz_030degC_normalized.chi
outputtype = gr

# PDF calculation setup
mode = xray
wavelength = 0.2113
twothetazero = 0
composition = CaO SiO2
bgscales = 1.0
rpoly = 0.9
qmaxinst = 23.7031
qmin = 0.5
qmax = 20
rmin = 0
rmax = 60
rstep = 0.01

# End of config --------------------------------------------------------------

#### start data
#S 1
#L r(Å)  G(Å$^{-2}$)
0 0
0.01 -0.00120714
0.02 -0.00237629
0.03 -0.00347498
0.04 -0.0044723
0.05 -0.00532075
0.06 -0.00600193
0.07 -0.0065005
0.08 -0.0068001
0.09 -0.00687161
0.1 -0.00670894
0.11 -0.00633018
0.12 -0.00574237
0.13 -0.0049512
0.14 -0.00396598
0.15 -0.00283582
0.16 -0.00159199
0.17 -0.000270237
0.18 0.00108882
0.19 0.00243082
0.2 0.00371036
0.21 0.00488137
0.22 0.00587396
0.23 0.00665111
0.24 0.0071797
0.25 0.00742528
0.26 0.00733209
0.27 0.00687814
0.28 0.0060789
0.29 0.00493497
0.3 0.00344428
0.31 0.00161192
0.32 -0.000485769
0.33 -0.00279992
0.34 -0.00527102
0.35 -0.00782963
0.36 -0.0103716
0.37 -0.0128074
0.38 -0.0150415
0.39 -0.0169247
0.4 -0.0183666
0.41 -0.0192793
0.42 -0.0195671
0.43 -0.0190738
0.44 -0.0177108
0.45 -0.0154696
0.46 -0.0123002
0.47 -0.00812623
0.48 -0.00286321
0.49 0.00336512
0.5 0.0105264
0.51 0.0185709
0.52 0.0275299
0.53 0.037167
0.54 0.0473608
0.55 0.0579729
0.56 0.0688609
0.57 0.0798066
0.58 0.0906228
0.59 0.101125
0.6 0.111069
0.61 0.120239
0.62 0.128501
0.63 0.135688
0.64 0.141588
0.65 0.145952
0.66 0.148817
0.67 0.150101
0.68 0.149736
0.69 0.147442
0.7 0.143479
0.71 0.137879
0.72 0.130701
0.73 0.121853
0.74 0.111603
0.75 0.100137
0.76 0.0876053
0.77 0.0741129
0.78 0.059885
0.79 0.045169
0.8 0.0301506
0.81 0.0150167
0.82 -2.0958e-05
0.83 -0.0147902
0.84 -0.0291412
0.85 -0.0429355
0.86 -0.055946
0.87 -0.0681743
0.88 -0.0795545
0.89 -0.0900421
0.9 -0.0994966
0.91 -0.108008
0.92 -0.115631
0.93 -0.122404
0.94 -0.128321
0.95 -0.133479
0.96 -0.138013
0.97 -0.142011
0.98 -0.145544
0.99 -0.148697
1 -0.151602
1.01 -0.154339
1.02 -0.156982
1.03 -0.159598
1.04 -0.16225
1.05 -0.164976
1.06 -0.167803
1.07 -0.170766
1.08 -0.173858
1.09 -0.17707
1.1 -0.180389
1.11 -0.183804
1.12 -0.187285
1.13 -0.190802
1.14 -0.194331
1.15 -0.197847
1.16 -0.201328
1.17 -0.204761
1.18 -0.208139
1.19 -0.211459
1.2 -0.21472
1.21 -0.21794
1.22 -0.221134
1.23 -0.224319
1.24 -0.227513
1.25 -0.230735
1.26 -0.233995
1.27 -0.237295
1.28 -0.240633
1.29 -0.243986
1.3 -0.247316
1.31 -0.250573
1.32 -0.253679
1.33 -0.25652
1.34 -0.259004
1.35 -0.26101
1.36 -0.262389
1.37 -0.262861
1.38 -0.262359
1.39 -0.260713
1.4 -0.257754
1.41 -0.253095
1.42 -0.246712
1.43 -0.238506
1.44 -0.228354
1.45 -0.215962
1.46 -0.201308
1.47 -0.184508
1.48 -0.16558
1.49 -0.144474
1.5 -0.121214
1.51 -0.0961814
1.52 -0.0695798
1.53 -0.0416443
1.54 -0.0125818
1.55 0.0170857
1.56 0.0469882
1.57 0.0767298
1.58 0.105759
1.59 0.133649
1.6 0.159984
1.61 0.184338
1.62 0.206038
1.63 0.224696
1.64 0.240132
1.65 0.252041
1.66 0.259948
1.67 0.263422
1.68 0.262745
1.69 0.257857
1.7 0.248698
1.71 0.234826
1.72 0.217009
1.73 0.195466
1.74 0.170476
1.75 0.142001
1.76 0.110832
1.77 0.0774753
1.78 0.0423947
1.79 0.00600421
1.8 -0.0310667
1.81 -0.0682473
1.82 -0.105049
1.83 -0.140928
1.84 -0.175301
1.85 -0.20787
1.86 -0.238284
1.87 -0.26619
1.88 -0.29096
1.89 -0.31278
1.9 -0.331528
1.91 -0.34714
1.92 -0.359181
1.93 -0.368073
1.94 -0.373995
1.95 -0.377098
1.96 -0.377331
1.97 -0.375046
1.98 -0.370648
1.99 -0.364392
2 -0.35646
2.01 -0.347096
2.02 -0.336701
2.03 -0.325498
2.04 -0.313681
2.05 -0.301395
2.06 -0.28885
2.07 -0.276145
2.08 -0.263343
2.09 -0.250465
2.1 -0.237507
2.11 -0.224429
2.12 -0.211163
2.13 -0.197584
2.14 -0.183579
2.15 -0.169051
2.16 -0.153886
2.17 -0.137922
2.18 -0.12101
2.19 -0.103155
2.2 -0.0843053
2.21 -0.0644207
2.22 -0.0433996
2.23 -0.0214442
2.24 0.00134858
2.25 0.024844
2.26 0.0489158
2.27 0.0732567
2.28 0.0976075
2.29 0.121693
2.3 0.145126
2.31 0.167558
2.32 0.188702
2.33 0.208237
2.34 0.22571
2.35 0.24068
2.36 0.253079
2.37 0.262666
2.38 0.269172
2.39 0.272049
2.4 0.271624
2.41 0.267854
2.42 0.260749
2.43 0.249921
2.44 0.235923
2.45 0.218997
2.46 0.199379
2.47 0.177133
2.48 0.152746
2.49 0.126714
2.5 0.0994202
2.51 0.0712358
2.52 0.0426318
2.53 0.0140897
2.54 -0.0139951
2.55 -0.0412167
2.56 -0.0670316
2.57 -0.0912588
2.58 -0.113629
2.59 -0.133918
2.6 -0.151605
2.61 -0.166847
2.62 -0.179624
2.63 -0.189933
2.64 -0.197579
2.65 -0.2028
2.66 -0.205887
2.67 -0.207038
2.68 -0.206388
2.69 -0.204206
2.7 -0.200935
2.71 -0.196872
2.72 -0.192318
2.73 -0.187601
2.74 -0.183064
2.75 -0.178975
2.76 -0.175578
2.77 -0.173246
2.78 -0.172057
2.79 -0.172124
2.8 -0.173534
2.81 -0.176478
2.82 -0.180876
2.83 -0.186593
2.84 -0.193531
2.85 -0.201611
2.86 -0.210647
2.87 -0.220328
2.88 -0.230416
2.89 -0.240655
2.9 -0.250717
2.91 -0.260317
2.92 -0.269185
2.93 -0.277055
2.94 -0.283464
2.95 -0.288323
2.96 -0.291456
2.97 -0.292697
2.98 -0.29169
2.99 -0.288441
3 -0.283019
3.01 -0.275421
3.02 -0.265547
3.03 -0.253444
3.04 -0.239435
3.05 -0.22368
3.06 -0.206332
3.07 -0.187506
3.08 -0.167645
3.09 -0.147007
3.1 -0.125857
3.11 -0.104473
3.12 -0.0831887
3.13 -0.0622662
3.14 -0.0419509
3.15 -0.022584
3.16 -0.00435297
3.17 0.0126184
3.18 0.028191
3.19 0.0421486
3.2 0.0543748
3.21 0.0649822
3.22 0.0739788
3.23 0.0813624
3.24 0.0870716
3.25 0.0914233
3.26 0.0945562
3.27 0.0966316
3.28 0.0977274
3.29 0.0981879
3.3 0.0982295
3.31 0.0980636
3.32 0.0979258
3.33 0.098056
3.34 0.0986457
3.35 0.0998745
3.36 0.101971
3.37 0.105119
3.38 0.109353
3.39 0.114755
3.4 0.12142
3.41 0.1295
3.42 0.138825
3.43 0.149357
3.44 0.161032
3.45 0.173904
3.46 0.187691
3.47 0.202247
3.48 0.217417
3.49 0.233061
3.5 0.248942
3.51 0.264853
3.52 0.280607
3.53 0.295978
3.54 0.310742
3.55 0.324762
3.56 0.337878
3.57 0.349908
3.58 0.36059
3.59 0.369958
3.6 0.377927
3.61 0.38443
3.62 0.389189
3.63 0.392398
3.64 0.394071
3.65 0.394225
3.66 0.392736
3.67 0.389765
3.68 0.385451
3.69 0.379873
3.7 0.373043
3.71 0.365062
3.72 0.356132
3.73 0.346354
3.74 0.33581
3.75 0.324556
3.76 0.312779
3.77 0.300567
3.78 0.288001
3.79 0.275122
3.8 0.262045
3.81 0.248824
3.82 0.235506
3.83 0.222127
3.84 0.208724
3.85 0.195322
3.86 0.181938
3.87 0.168587
3.88 0.155283
3.89 0.142029
3.9 0.128834
3.91 0.11571
3.92 0.102681
3.93 0.0897528
3.94 0.0769492
3.95 0.0642969
3.96 0.0518643
3.97 0.0396692
3.98 0.0277584
3.99 0.0161855
4 0.00506277
4.01 -0.00556372
4.02 -0.0156439
4.03 -0.0251078
4.04 -0.0338261
4.05 -0.041709
4.06 -0.0487481
4.07 -0.0548804
4.08 -0.0600108
4.09 -0.0639936
4.1 -0.0669108
4.11 -0.0687339
4.12 -0.0694454
4.13 -0.0688656
4.14 -0.0671786
4.15 -0.0644127
4.16 -0.0606062
4.17 -0.0557023
4.18 -0.0498525
4.19 -0.0431786
4.2 -0.0357715
4.21 -0.0276911
4.22 -0.0190669
4.23 -0.0100659
4.24 -0.000808535
4.25 0.00858254
4.26 0.0179636
4.27 0.0272019
4.28 0.0361819
4.29 0.0447943
4.3 0.0528485
4.31 0.0603188
4.32 0.0671293
4.33 0.0732159
4.34 0.0784318
4.35 0.0827989
4.36 0.0863331
4.37 0.0890326
4.38 0.0908474
4.39 0.0918118
4.4 0.0920361
4.41 0.0915767
4.42 0.090479
4.43 0.0887902
4.44 0.0866679
4.45 0.0842024
4.46 0.0814871
4.47 0.0786072
4.48 0.0756921
4.49 0.0728323
4.5 0.0701138
4.51 0.0676519
4.52 0.0655102
4.53 0.063739
4.54 0.062388
4.55 0.0615355
4.56 0.0612111
4.57 0.0613895
4.58 0.0620708
4.59 0.063263
4.6 0.0649749
4.61 0.0671131
4.62 0.0696337
4.63 0.0724855
4.64 0.0756431
4.65 0.0789918
4.66 0.0824635
4.67 0.0859882
4.68 0.0894844
4.69 0.092873
4.7 0.0960878
4.71 0.0990649
4.72 0.101715
4.73 0.103974
4.74 0.10582
4.75 0.10721
4.76 0.108088
4.77 0.108382
4.78 0.10813
4.79 0.107318
4.8 0.105934
4.81 0.103886
4.82 0.101266
4.83 0.0980796
4.84 0.0943338
4.85 0.0899728
4.86 0.0850588
4.87 0.079625
4.88 0.073685
4.89 0.0672127
4.9 0.0602284
4.91 0.0527827
4.92 0.0448886
4.93 0.0365402
4.94 0.0277226
4.95 0.0184993
4.96 0.00888453
4.97 -0.00110776
4.98 -0.0115108
4.99 -0.0222462
5 -0.0332901
5.01 -0.0446151
5.02 -0.0562168
5.03 -0.068031
5.04 -0.0800077
5.05 -0.0921015
5.06 -0.104263
5.07 -0.116426
5.08 -0.128526
5.09 -0.140502
5.1 -0.152278
5.11 -0.163756
5.12 -0.174895
5.13 -0.185627
5.14 -0.195886
5.15 -0.205519
5.16 -0.214546
5.17 -0.222916
5.18 -0.230581
5.19 -0.237405
5.2 -0.243422
5.21 -0.248635
5.22 -0.253031
5.23 -0.256535
5.24 -0.259164
5.25 -0.260993
5.26 -0.262044
5.27 -0.262312
5.28 -0.261794
5.29 -0.260615
5.3 -0.258821
5.31 -0.256458
5.32 -0.253508
5.33 -0.250107
5.34 -0.246305
5.35 -0.242149
5.36 -0.23765
5.37 -0.232883
5.38 -0.227893
5.39 -0.222707
5.4 -0.217338
5.41 -0.211807
5.42 -0.206137
5.43 -0.200334
5.44 -0.194389
5.45 -0.18829
5.46 -0.182042
5.47 -0.175634
5.48 -0.169052
5.49 -0.162253
5.5 -0.155253
5.51 -0.14804
5.52 -0.140605
5.53 -0.132916
5.54 -0.124994
5.55 -0.116852
5.56 -0.1085
5.57 -0.0999387
5.58 -0.0911988
5.59 -0.0823212
5.6 -0.0733387
5.61 -0.0642867
5.62 -0.0552121
5.63 -0.0461651
5.64 -0.0371912
5.65 -0.0283382
5.66 -0.0196824
5.67 -0.0112482
5.68 -0.00307731
5.69 0.00479175
5.7 0.0122759
5.71 0.0193762
5.72 0.026079
5.73 0.032366
5.74 0.0381842
5.75 0.0435358
5.76 0.0484498
5.77 0.0529303
5.78 0.0569639
5.79 0.0605423
5.8 0.0637266
5.81 0.0665345
5.82 0.0689802
5.83 0.0710401
5.84 0.0727845
5.85 0.0742306
5.86 0.0753937
5.87 0.0762523
5.88 0.0768465
5.89 0.0771903
5.9 0.0772881
5.91 0.0771185
5.92 0.0766869
5.93 0.0760066
5.94 0.0750735
5.95 0.0738691
5.96 0.0723749
5.97 0.0706157
5.98 0.068591
5.99 0.0662994
6 0.063714
6.01 0.0608845
6.02 0.0578266
6.03 0.0545609
6.04 0.0510927
6.05 0.0474779
6.06 0.0437579
6.07 0.0399738
6.08 0.0361732
6.09 0.0324134
6.1 0.0287451
6.11 0.0252187
6.12 0.0218976
6.13 0.0188508
6.14 0.0161013
6.15 0.013689
6.16 0.0116551
6.17 0.0100831
6.18 0.00893678
6.19 0.00822687
6.2 0.00795584
6.21 0.00817437
6.22 0.0088152
6.23 0.00984194
6.24 0.0112209
6.25 0.0129364
6.26 0.0149211
6.27 0.0171019
6.28 0.019421
6.29 0.021819
6.3 0.024224
6.31 0.0265689
6.32 0.0287954
6.33 0.0308447
6.34 0.0326305
6.35 0.0341372
6.36 0.0353291
6.37 0.0361779
6.38 0.0366118
6.39 0.0366608
6.4 0.0363325
6.41 0.0356341
6.42 0.034548
6.43 0.0331144
6.44 0.0313854
6.45 0.0293964
6.46 0.0271766
6.47 0.024769
6.48 0.0222397
6.49 0.0196334
6.5 0.0169943
6.51 0.0143723
6.52 0.0118085
6.53 0.00933754
6.54 0.0069893
6.55 0.00481252
6.56 0.00281144
6.57 0.000996088
6.58 -0.000625235
6.59 -0.00202936
6.6 -0.00322554
6.61 -0.00423125
6.62 -0.00505469
6.63 -0.00569651
6.64 -0.00616386
6.65 -0.00648547
6.66 -0.00667236
6.67 -0.00673181
6.68 -0.00665818
6.69 -0.00647263
6.7 -0.00617602
6.71 -0.00576585
6.72 -0.00521806
6.73 -0.00453561
6.74 -0.00370723
6.75 -0.00271652
6.76 -0.00152445
6.77 -0.000114378
6.78 0.0015242
6.79 0.00341264
6.8 0.00558929
6.81 0.00808717
6.82 0.0108946
6.83 0.0140239
6.84 0.0174903
6.85 0.0213367
6.86 0.0255142
6.87 0.0300146
6.88 0.0348248
6.89 0.0399639
6.9 0.0453679
6.91 0.0510015
6.92 0.0568306
6.93 0.0628292
6.94 0.0689417
6.95 0.075116
6.96 0.0813076
6.97 0.0874665
6.98 0.0935372
6.99 0.0994802
7 0.105255
7.01 0.110817
7.02 0.116098
7.03 0.121097
7.04 0.125787
7.05 0.130147
7.06 0.134103
7.07 0.137686
7.08 0.140889
7.09 0.143708
7.1 0.146097
7.11 0.148073
7.12 0.149659
7.13 0.150859
7.14 0.15165
7.15 0.152026
7.16 0.152028
7.17 0.151658
7.18 0.150912
7.19 0.149751
7.2 0.148226
7.21 0.14634
7.22 0.144091
7.23 0.141429
7.24 0.138399
7.25 0.135009
7.26 0.131259
7.27 0.127116
7.28 0.122605
7.29 0.117752
7.3 0.112567
7.31 0.107045
7.32 0.101198
7.33 0.0950762
7.34 0.088706
7.35 0.0821107
7.36 0.0753085
7.37 0.0683644
7.38 0.061318
7.39 0.0542114
7.4 0.0470929
7.41 0.0400169
7.42 0.0330303
7.43 0.0261803
7.44 0.0195388
7.45 0.0131495
7.46 0.00704602
7.47 0.00127027
7.48 -0.00411123
7.49 -0.00904556
7.5 -0.0135358
7.51 -0.0175541
7.52 -0.0210617
7.53 -0.0239814
7.54 -0.0263646
7.55 -0.0282003
7.56 -0.0294809
7.57 -0.0301199
7.58 -0.0301938
7.59 -0.0297133
7.6 -0.0286854
7.61 -0.0270629
7.62 -0.0248916
7.63 -0.0222148
7.64 -0.0190507
7.65 -0.0153889
7.66 -0.0112469
7.67 -0.00669229
7.68 -0.00175269
7.69 0.00355147
7.7 0.00921491
7.71 0.0151569
7.72 0.0213399
7.73 0.0277239
7.74 0.0342834
7.75 0.0409455
7.76 0.0476609
7.77 0.0543802
7.78 0.0610406
7.79 0.0675834
7.8 0.0739574
7.81 0.0801084
7.82 0.085959
7.83 0.0914391
7.84 0.0965234
7.85 0.101163
7.86 0.105295
7.87 0.108817
7.88 0.111758
7.89 0.114085
7.9 0.115771
7.91 0.116692
7.92 0.116927
7.93 0.116474
7.94 0.115331
7.95 0.113428
7.96 0.110821
7.97 0.107561
7.98 0.10367
7.99 0.0991325
8 0.0939766
8.01 0.0882884
8.02 0.0821037
8.03 0.0754456
8.04 0.068318
8.05 0.0608153
8.06 0.0529737
8.07 0.0448278
8.08 0.0363736
8.09 0.0276843
8.1 0.0187891
8.11 0.00971287
8.12 0.000462486
8.13 -0.00892843
8.14 -0.0184349
8.15 -0.0280406
8.16 -0.0377352
8.17 -0.0475016
8.18 -0.0573176
8.19 -0.0671671
8.2 -0.0770325
8.21 -0.0868907
8.22 -0.0967178
8.23 -0.106489
8.24 -0.116177
8.25 -0.125729
8.26 -0.135124
8.27 -0.144328
8.28 -0.153301
8.29 -0.161969
8.3 -0.170305
8.31 -0.17828
8.32 -0.185855
8.33 -0.192959
8.34 -0.199546
8.35 -0.205624
8.36 -0.211167
8.37 -0.216136
8.38 -0.220465
8.39 -0.224217
8.4 -0.227394
8.41 -0.230002
8.42 -0.231972
8.43 -0.233412
8.44 -0.234352
8.45 -0.234825
8.46 -0.234822
8.47 -0.234422
8.48 -0.233686
8.49 -0.232657
8.5 -0.231364
8.51 -0.229854
8.52 -0.228186
8.53 -0.226395
8.54 -0.224507
8.55 -0.222545
8.56 -0.220535
8.57 -0.218487
8.58 -0.216406
8.59 -0.214282
8.6 -0.212108
8.61 -0.20987
8.62 -0.207547
8.63 -0.205097
8.64 -0.202498
8.65 -0.199725
8.66 -0.196749
8.67 -0.193523
8.68 -0.190014
8.69 -0.186221
8.7 -0.182127
8.71 -0.177709
8.72 -0.172935
8.73 -0.167849
8.74 -0.162459
8.75 -0.156783
8.76 -0.150807
8.77 -0.144607
8.78 -0.138221
8.79 -0.131688
8.8 -0.125045
8.81 -0.118354
8.82 -0.111666
8.83 -0.105024
8.84 -0.0984834
8.85 -0.0920906
8.86 -0.0858709
8.87 -0.0798515
8.88 -0.0740626
8.89 -0.0685376
8.9 -0.0632526
8.91 -0.0582032
8.92 -0.0533775
8.93 -0.0487851
8.94 -0.0443631
8.95 -0.0400788
8.96 -0.0358948
8.97 -0.0317729
8.98 -0.0276592
8.99 -0.0235092
9 -0.0192818
9.01 -0.0149263
9.02 -0.0104024
9.03 -0.00569255
9.04 -0.000775783
9.05 0.00437132
9.06 0.00977226
9.07 0.0153961
9.08 0.0212306
9.09 0.0272559
9.1 0.0334652
9.11 0.0397936
9.12 0.0462001
9.13 0.0526398
9.14 0.0590567
9.15 0.0653949
9.16 0.0716056
9.17 0.0776411
9.18 0.0834347
9.19 0.0889391
9.2 0.0941383
9.21 0.0990048
9.22 0.103502
9.23 0.107588
9.24 0.111302
9.25 0.114647
9.26 0.117632
9.27 0.120228
9.28 0.122514
9.29 0.124518
9.3 0.126272
9.31 0.12779
9.32 0.129129
9.33 0.13033
9.34 0.131426
9.35 0.132441
9.36 0.133402
9.37 0.134334
9.38 0.135246
9.39 0.136142
9.4 0.13702
9.41 0.13787
9.42 0.138677
9.43 0.139418
9.44 0.14005
9.45 0.140552
9.46 0.140893
9.47 0.14104
9.48 0.140925
9.49 0.140534
9.5 0.139848
9.51 0.138843
9.52 0.137472
9.53 0.135726
9.54 0.133627
9.55 0.131181
9.56 0.128385
9.57 0.125243
9.58 0.121821
9.59 0.118156
9.6 0.114287
9.61 0.110245
9.62 0.106109
9.63 0.101931
9.64 0.0977636
9.65 0.0936717
9.66 0.0897058
9.67 0.0859079
9.68 0.0823178
9.69 0.0789928
9.7 0.0759607
9.71 0.0732212
9.72 0.0707846
9.73 0.068668
9.74 0.0668845
9.75 0.0653863
9.76 0.0641539
9.77 0.0631646
9.78 0.0624157
9.79 0.0618395
9.8 0.0614029
9.81 0.0610726
9.82 0.0608226
9.83 0.0606129
9.84 0.0604167
9.85 0.0602148
9.86 0.0599906
9.87 0.0597365
9.88 0.0594548
9.89 0.0591528
9.9 0.0588449
9.91 0.0585558
9.92 0.0583123
9.93 0.0581446
9.94 0.0580875
9.95 0.0582027
9.96 0.0585082
9.97 0.0590388
9.98 0.0598268
9.99 0.0609417
10 0.0623811
10.01 0.0641524
10.02 0.066265
10.03 0.068751
10.04 0.0715945
10.05 0.0747545
10.06 0.078206
10.07 0.0819275
10.08 0.0858836
10.09 0.0899988
10.1 0.0942202
10.11 0.0984907
10.12 0.102739
10.13 0.106899
10.14 0.110911
10.15 0.114714
10.16 0.11821
10.17 0.121369
10.18 0.124152
10.19 0.126521
10.2 0.1284
10.21 0.129771
10.22 0.13065
10.23 0.13103
10.24 0.130884
10.25 0.130194
10.26 0.129029
10.27 0.127408
10.28 0.125351
10.29 0.122836
10.3 0.119957
10.31 0.116744
10.32 0.113232
10.33 0.109418
10.34 0.105365
10.35 0.101106
10.36 0.0966666
10.37 0.0920528
10.38 0.0872886
10.39 0.0823972
10.4 0.0773876
10.41 0.0722605
10.42 0.0670141
10.43 0.0616616
10.44 0.0562031
10.45 0.0506365
10.46 0.0449479
10.47 0.0391538
10.48 0.033257
10.49 0.0272627
10.5 0.0211678
10.51 0.014995
10.52 0.00876133
10.53 0.0024849
10.54 -0.003813
10.55 -0.0101029
10.56 -0.0163569
10.57 -0.0225466
10.58 -0.0286354
10.59 -0.0345822
10.6 -0.0403685
10.61 -0.0459669
10.62 -0.0513487
10.63 -0.0564582
10.64 -0.0613097
10.65 -0.0658902
10.66 -0.0701912
10.67 -0.0741705
10.68 -0.0778624
10.69 -0.0812812
10.7 -0.0844389
10.71 -0.0873296
10.72 -0.0899851
10.73 -0.0924436
10.74 -0.0947299
10.75 -0.0968627
10.76 -0.0988666
10.77 -0.10078
10.78 -0.102626
10.79 -0.104421
10.8 -0.106181
10.81 -0.107922
10.82 -0.109648
10.83 -0.11136
10.84 -0.113052
10.85 -0.114713
10.86 -0.116328
10.87 -0.117878
10.88 -0.11933
10.89 -0.120657
10.9 -0.121838
10.91 -0.122844
10.92 -0.123635
10.93 -0.12417
10.94 -0.124449
10.95 -0.124452
10.96 -0.124159
10.97 -0.123521
10.98 -0.12258
10.99 -0.121336
11 -0.1198
11.01 -0.117952
11.02 -0.115847
11.03 -0.11352
11.04 -0.111003
11.05 -0.108319
11.06 -0.10552
11.07 -0.102656
11.08 -0.0997672
11.09 -0.0968975
11.1 -0.0940952
11.11 -0.0913928
11.12 -0.0888219
11.13 -0.0864133
11.14 -0.0842138
11.15 -0.0822148
11.16 -0.0804254
11.17 -0.0788487
11.18 -0.0775106
11.19 -0.0763752
11.2 -0.0754241
11.21 -0.0746386
11.22 -0.0740086
11.23 -0.0734988
11.24 -0.0730745
11.25 -0.0727088
11.26 -0.0723758
11.27 -0.0720467
11.28 -0.0716972
11.29 -0.071309
11.3 -0.0708664
11.31 -0.0703507
11.32 -0.0697657
11.33 -0.0691121
11.34 -0.0683952
11.35 -0.0676188
11.36 -0.0668059
11.37 -0.0659755
11.38 -0.065148
11.39 -0.0643509
11.4 -0.0636107
11.41 -0.0629487
11.42 -0.0623873
11.43 -0.0619555
11.44 -0.0616787
11.45 -0.0615578
11.46 -0.0616022
11.47 -0.0618207
11.48 -0.0622318
11.49 -0.0628062
11.5 -0.0635331
11.51 -0.0643972
11.52 -0.0653933
11.53 -0.0664799
11.54 -0.0676288
11.55 -0.068812
11.56 -0.0699976
11.57 -0.0711507
11.58 -0.0722427
11.59 -0.0732467
11.6 -0.0741292
11.61 -0.0748608
11.62 -0.075436
11.63 -0.0758419
11.64 -0.0760656
11.65 -0.076083
11.66 -0.0759203
11.67 -0.0755834
11.68 -0.0750824
11.69 -0.0744109
11.7 -0.0736073
11.71 -0.072693
11.72 -0.0716881
11.73 -0.0706086
11.74 -0.069482
11.75 -0.0683317
11.76 -0.0671752
11.77 -0.0660297
11.78 -0.0649106
11.79 -0.0638252
11.8 -0.0627787
11.81 -0.0617738
11.82 -0.0608121
11.83 -0.0598819
11.84 -0.0589742
11.85 -0.0580775
11.86 -0.0571753
11.87 -0.0562509
11.88 -0.0552882
11.89 -0.0542709
11.9 -0.0531742
11.91 -0.0519855
11.92 -0.0506963
11.93 -0.0492969
11.94 -0.0477721
11.95 -0.0461143
11.96 -0.0443346
11.97 -0.0424362
11.98 -0.0404225
11.99 -0.0382938
12 -0.0360773
12.01 -0.0337874
12.02 -0.0314401
12.03 -0.0290493
12.04 -0.0266402
12.05 -0.0242307
12.06 -0.0218373
