[DEFAULT]

version = diffpy.pdfgetx-2.2.1

# input and output specifications
dataformat = twotheta
inputfile = Synthetic_CSH_CSH_pdf_ramp_900_04_normalized.chi
backgroundfiles = quartz_030degC_normalized.chi
outputtype = gr

# PDF calculation setup
mode = xray
wavelength = 0.2113
twothetazero = 0
composition = CaO SiO2
bgscales = 1.0
rpoly = 0.9
qmaxinst = 23.7031
qmin = 0.5
qmax = 20
rmin = 0
rmax = 60
rstep = 0.01

# End of config --------------------------------------------------------------

#### start data
#S 1
#L r(Å)  G(Å$^{-2}$)
0 0
0.01 -0.00157739
0.02 -0.00310327
0.03 -0.00453369
0.04 -0.00582702
0.05 -0.00691959
0.06 -0.00778739
0.07 -0.00841083
0.08 -0.00876928
0.09 -0.00882579
0.1 -0.00857453
0.11 -0.00804163
0.12 -0.00723871
0.13 -0.00617605
0.14 -0.00486932
0.15 -0.00338404
0.16 -0.00176273
0.17 -5.32074e-05
0.18 0.00168905
0.19 0.00339603
0.2 0.00501016
0.21 0.00647401
0.22 0.0076999
0.23 0.0086453
0.24 0.00927258
0.25 0.00954277
0.26 0.00939137
0.27 0.00879708
0.28 0.00778431
0.29 0.00635893
0.3 0.00452409
0.31 0.00229252
0.32 -0.000240849
0.33 -0.00301406
0.34 -0.00595344
0.35 -0.00897143
0.36 -0.011948
0.37 -0.0147786
0.38 -0.0173538
0.39 -0.0195014
0.4 -0.0211239
0.41 -0.0221268
0.42 -0.0224075
0.43 -0.0217965
0.44 -0.0202042
0.45 -0.0176317
0.46 -0.0140336
0.47 -0.00933692
0.48 -0.00346328
0.49 0.00344058
0.5 0.0113276
0.51 0.0201318
0.52 0.0298665
0.53 0.040272
0.54 0.0512083
0.55 0.0625182
0.56 0.0740317
0.57 0.0855172
0.58 0.0967753
0.59 0.107609
0.6 0.117753
0.61 0.126985
0.62 0.135176
0.63 0.142159
0.64 0.147718
0.65 0.151602
0.66 0.153875
0.67 0.154463
0.68 0.153313
0.69 0.150153
0.7 0.145274
0.71 0.138727
0.72 0.130589
0.73 0.120793
0.74 0.109626
0.75 0.09729
0.76 0.0839533
0.77 0.0697419
0.78 0.0548937
0.79 0.0396587
0.8 0.0242285
0.81 0.00879804
0.82 -0.00641365
0.83 -0.0212505
0.84 -0.0355688
0.85 -0.0492378
0.86 -0.0620307
0.87 -0.073976
0.88 -0.0850212
0.89 -0.0951367
0.9 -0.104196
0.91 -0.112309
0.92 -0.119544
0.93 -0.125955
0.94 -0.131549
0.95 -0.136435
0.96 -0.140754
0.97 -0.144597
0.98 -0.148042
0.99 -0.151178
1 -0.154127
1.01 -0.156964
1.02 -0.159757
1.03 -0.162568
1.04 -0.165441
1.05 -0.168404
1.06 -0.171473
1.07 -0.174666
1.08 -0.177964
1.09 -0.181347
1.1 -0.184793
1.11 -0.188276
1.12 -0.191759
1.13 -0.195214
1.14 -0.198612
1.15 -0.201927
1.16 -0.205135
1.17 -0.208238
1.18 -0.211234
1.19 -0.214131
1.2 -0.216935
1.21 -0.219683
1.22 -0.222402
1.23 -0.225121
1.24 -0.227879
1.25 -0.230704
1.26 -0.233617
1.27 -0.236631
1.28 -0.239758
1.29 -0.24298
1.3 -0.246258
1.31 -0.249543
1.32 -0.252759
1.33 -0.25579
1.34 -0.258531
1.35 -0.260849
1.36 -0.262587
1.37 -0.263453
1.38 -0.263361
1.39 -0.262126
1.4 -0.259566
1.41 -0.255273
1.42 -0.249211
1.43 -0.241269
1.44 -0.231314
1.45 -0.219037
1.46 -0.204411
1.47 -0.187553
1.48 -0.168481
1.49 -0.147145
1.5 -0.123569
1.51 -0.0981512
1.52 -0.0711076
1.53 -0.0426843
1.54 -0.0131008
1.55 0.0170991
1.56 0.0475291
1.57 0.0777766
1.58 0.107267
1.59 0.135559
1.6 0.162224
1.61 0.186826
1.62 0.208668
1.63 0.22736
1.64 0.242719
1.65 0.254443
1.66 0.262048
1.67 0.265107
1.68 0.263917
1.69 0.258429
1.7 0.248595
1.71 0.233982
1.72 0.215383
1.73 0.193033
1.74 0.167231
1.75 0.137958
1.76 0.106024
1.77 0.0719521
1.78 0.0362182
1.79 -0.000741461
1.8 -0.0382878
1.81 -0.0758473
1.82 -0.112927
1.83 -0.148973
1.84 -0.183398
1.85 -0.215921
1.86 -0.246193
1.87 -0.27387
1.88 -0.298325
1.89 -0.319767
1.9 -0.338088
1.91 -0.353237
1.92 -0.364792
1.93 -0.373192
1.94 -0.378631
1.95 -0.381268
1.96 -0.38107
1.97 -0.378397
1.98 -0.373657
1.99 -0.367111
2 -0.358946
2.01 -0.34941
2.02 -0.338893
2.03 -0.327617
2.04 -0.315769
2.05 -0.303491
2.06 -0.290979
2.07 -0.278321
2.08 -0.265573
2.09 -0.252742
2.1 -0.239817
2.11 -0.226748
2.12 -0.213461
2.13 -0.19982
2.14 -0.185707
2.15 -0.171026
2.16 -0.155662
2.17 -0.139452
2.18 -0.122248
2.19 -0.104062
2.2 -0.0848512
2.21 -0.0645806
2.22 -0.0431559
2.23 -0.0207913
2.24 0.00240749
2.25 0.026297
2.26 0.0507382
2.27 0.0754179
2.28 0.100071
2.29 0.124415
2.3 0.148056
2.31 0.170643
2.32 0.191894
2.33 0.211485
2.34 0.228965
2.35 0.243898
2.36 0.256224
2.37 0.265709
2.38 0.272094
2.39 0.274836
2.4 0.274276
2.41 0.270378
2.42 0.263161
2.43 0.25225
2.44 0.2382
2.45 0.221263
2.46 0.201675
2.47 0.179509
2.48 0.155252
2.49 0.129396
2.5 0.102322
2.51 0.0744007
2.52 0.0460981
2.53 0.0178852
2.54 -0.00984955
2.55 -0.036708
2.56 -0.062156
2.57 -0.0860223
2.58 -0.108046
2.59 -0.12801
2.6 -0.145406
2.61 -0.160394
2.62 -0.172958
2.63 -0.183099
2.64 -0.190628
2.65 -0.195782
2.66 -0.198848
2.67 -0.20002
2.68 -0.199434
2.69 -0.197351
2.7 -0.194206
2.71 -0.19029
2.72 -0.185893
2.73 -0.181338
2.74 -0.176958
2.75 -0.173014
2.76 -0.169743
2.77 -0.167508
2.78 -0.166384
2.79 -0.166482
2.8 -0.167887
2.81 -0.170783
2.82 -0.175093
2.83 -0.180687
2.84 -0.187468
2.85 -0.195362
2.86 -0.204187
2.87 -0.213639
2.88 -0.223491
2.89 -0.233489
2.9 -0.243317
2.91 -0.252696
2.92 -0.261362
2.93 -0.269056
2.94 -0.275325
2.95 -0.280082
2.96 -0.283152
2.97 -0.284374
2.98 -0.283397
2.99 -0.280226
3 -0.274925
3.01 -0.267491
3.02 -0.257825
3.03 -0.24597
3.04 -0.232243
3.05 -0.216798
3.06 -0.199786
3.07 -0.181318
3.08 -0.161831
3.09 -0.141578
3.1 -0.120821
3.11 -0.0998338
3.12 -0.078947
3.13 -0.0584197
3.14 -0.0384954
3.15 -0.0195129
3.16 -0.001658
3.17 0.0149461
3.18 0.0301612
3.19 0.0437733
3.2 0.0556671
3.21 0.0659561
3.22 0.0746494
3.23 0.0817476
3.24 0.0871943
3.25 0.091307
3.26 0.0942278
3.27 0.0961219
3.28 0.0970774
3.29 0.0974389
3.3 0.097427
3.31 0.0972581
3.32 0.097179
3.33 0.097431
3.34 0.0982067
3.35 0.0996885
3.36 0.102112
3.37 0.105664
3.38 0.11037
3.39 0.116314
3.4 0.123586
3.41 0.132341
3.42 0.142392
3.43 0.153695
3.44 0.166176
3.45 0.17988
3.46 0.194512
3.47 0.209911
3.48 0.225909
3.49 0.242352
3.5 0.258987
3.51 0.275598
3.52 0.291987
3.53 0.307912
3.54 0.323135
3.55 0.33752
3.56 0.350903
3.57 0.363094
3.58 0.37382
3.59 0.38313
3.6 0.390941
3.61 0.397192
3.62 0.401598
3.63 0.404378
3.64 0.405554
3.65 0.405156
3.66 0.403069
3.67 0.399469
3.68 0.394511
3.69 0.388288
3.7 0.380823
3.71 0.37223
3.72 0.36272
3.73 0.352403
3.74 0.341369
3.75 0.329685
3.76 0.317533
3.77 0.305002
3.78 0.292173
3.79 0.279093
3.8 0.265862
3.81 0.25253
3.82 0.239137
3.83 0.225712
3.84 0.212284
3.85 0.198866
3.86 0.185467
3.87 0.172095
3.88 0.158752
3.89 0.14544
3.9 0.13216
3.91 0.118921
3.92 0.105739
3.93 0.0926273
3.94 0.0796075
3.95 0.0667098
3.96 0.0540029
3.97 0.041514
3.98 0.0292963
3.99 0.01741
4 0.00597598
4.01 -0.0049511
4.02 -0.0153137
4.03 -0.0250345
4.04 -0.0339746
4.05 -0.0420369
4.06 -0.049211
4.07 -0.0554304
4.08 -0.0605958
4.09 -0.0645559
4.1 -0.0674
4.11 -0.0691014
4.12 -0.0696463
4.13 -0.0688538
4.14 -0.0669206
4.15 -0.0638819
4.16 -0.0597834
4.17 -0.0545753
4.18 -0.0484193
4.19 -0.0414453
4.2 -0.0337517
4.21 -0.0254074
4.22 -0.0165495
4.23 -0.00734804
4.24 0.00207242
4.25 0.0115846
4.26 0.0210394
4.27 0.0303089
4.28 0.0392783
4.29 0.0478403
4.3 0.0558021
4.31 0.0631478
4.32 0.0698064
4.33 0.0757189
4.34 0.0807422
4.35 0.0849061
4.36 0.0882322
4.37 0.0907238
4.38 0.0923359
4.39 0.0931075
4.4 0.0931512
4.41 0.0925255
4.42 0.0912775
4.43 0.089456
4.44 0.0872156
4.45 0.0846451
4.46 0.0818354
4.47 0.0788693
4.48 0.075871
4.49 0.072927
4.5 0.0701191
4.51 0.0675569
4.52 0.0653001
4.53 0.0633959
4.54 0.0618909
4.55 0.0608588
4.56 0.0603271
4.57 0.0602715
4.58 0.0606921
4.59 0.0615967
4.6 0.0629938
4.61 0.0647957
4.62 0.0669615
4.63 0.0694435
4.64 0.0722193
4.65 0.0751804
4.66 0.0782634
4.67 0.0814024
4.68 0.0845215
4.69 0.0875452
4.7 0.0904101
4.71 0.0930549
4.72 0.0953938
4.73 0.0973645
4.74 0.0989423
4.75 0.100085
4.76 0.100735
4.77 0.100819
4.78 0.10037
4.79 0.0993701
4.8 0.0978044
4.81 0.0955761
4.82 0.0927714
4.83 0.089391
4.84 0.085439
4.85 0.0808527
4.86 0.0756919
4.87 0.0699876
4.88 0.0637514
4.89 0.0569535
4.9 0.0496138
4.91 0.0417855
4.92 0.0334829
4.93 0.0247012
4.94 0.0154275
4.95 0.00573188
4.96 -0.00436722
4.97 -0.014851
4.98 -0.0257469
4.99 -0.0369699
5 -0.0484906
5.01 -0.060276
5.02 -0.0723126
5.03 -0.084532
5.04 -0.0968801
5.05 -0.109307
5.06 -0.121755
5.07 -0.134155
5.08 -0.146443
5.09 -0.158555
5.1 -0.170411
5.11 -0.181911
5.12 -0.193017
5.13 -0.203664
5.14 -0.213784
5.15 -0.223222
5.16 -0.232006
5.17 -0.240087
5.18 -0.247423
5.19 -0.253873
5.2 -0.259481
5.21 -0.264255
5.22 -0.268185
5.23 -0.271199
5.24 -0.273318
5.25 -0.274624
5.26 -0.275143
5.27 -0.274873
5.28 -0.273815
5.29 -0.2721
5.3 -0.269777
5.31 -0.266894
5.32 -0.263442
5.33 -0.259557
5.34 -0.25529
5.35 -0.250693
5.36 -0.245782
5.37 -0.24063
5.38 -0.235283
5.39 -0.229771
5.4 -0.224107
5.41 -0.218313
5.42 -0.212407
5.43 -0.206394
5.44 -0.200267
5.45 -0.194008
5.46 -0.187619
5.47 -0.181084
5.48 -0.174386
5.49 -0.167478
5.5 -0.16037
5.51 -0.153046
5.52 -0.145494
5.53 -0.137673
5.54 -0.129604
5.55 -0.121297
5.56 -0.112758
5.57 -0.103986
5.58 -0.0950086
5.59 -0.0858705
5.6 -0.076605
5.61 -0.0672487
5.62 -0.0578512
5.63 -0.0484689
5.64 -0.0391522
5.65 -0.0299549
5.66 -0.0209608
5.67 -0.0122012
5.68 -0.00372503
5.69 0.00442217
5.7 0.012145
5.71 0.0194405
5.72 0.02629
5.73 0.03267
5.74 0.0385177
5.75 0.0438329
5.76 0.048647
5.77 0.0529638
5.78 0.0567679
5.79 0.0600507
5.8 0.0628846
5.81 0.0652928
5.82 0.067296
5.83 0.0688755
5.84 0.0701168
5.85 0.0710469
5.86 0.0716917
5.87 0.0720429
5.88 0.0721518
5.89 0.0720425
5.9 0.071729
5.91 0.0712045
5.92 0.070482
5.93 0.0695776
5.94 0.0684921
5.95 0.0672144
5.96 0.0657316
5.97 0.06406
5.98 0.0621967
5.99 0.0601377
6 0.0578581
6.01 0.0553905
6.02 0.0527423
6.03 0.0499252
6.04 0.0469372
6.05 0.0438192
6.06 0.0406018
6.07 0.0373158
6.08 0.0339966
6.09 0.0306914
6.1 0.0274442
6.11 0.0242984
6.12 0.0213095
6.13 0.0185393
6.14 0.0160137
6.15 0.0137721
6.16 0.0118557
6.17 0.0103447
6.18 0.00921445
6.19 0.008481
6.2 0.00815302
6.21 0.00828568
6.22 0.00882339
6.23 0.00973832
6.24 0.0110047
6.25 0.0126161
6.26 0.0145135
6.27 0.0166295
6.28 0.018912
6.29 0.0213082
6.3 0.0237517
6.31 0.0261737
6.32 0.0285163
6.33 0.0307207
6.34 0.0327028
6.35 0.0344382
6.36 0.0358868
6.37 0.0370152
6.38 0.0377472
6.39 0.0381036
6.4 0.0380851
6.41 0.0376923
6.42 0.0368997
6.43 0.0357405
6.44 0.0342626
6.45 0.0324968
6.46 0.0304665
6.47 0.0282104
6.48 0.0257963
6.49 0.0232689
6.5 0.0206722
6.51 0.0180543
6.52 0.0154644
6.53 0.0129406
6.54 0.0105175
6.55 0.00824692
6.56 0.00614137
6.57 0.00421682
6.58 0.00248713
6.59 0.000982093
6.6 -0.000301788
6.61 -0.0013779
6.62 -0.00225049
6.63 -0.00291528
6.64 -0.00337541
6.65 -0.00366066
6.66 -0.00378133
6.67 -0.00374419
6.68 -0.00354117
6.69 -0.0031993
6.7 -0.00272173
6.71 -0.00210869
6.72 -0.00133708
6.73 -0.000416039
6.74 0.000661833
6.75 0.00190938
6.76 0.00336226
6.77 0.00503326
6.78 0.00692985
6.79 0.00907098
6.8 0.0114924
6.81 0.0142252
6.82 0.0172574
6.83 0.0206008
6.84 0.0242705
6.85 0.0283084
6.86 0.0326679
6.87 0.0373419
6.88 0.0423181
6.89 0.0476162
6.9 0.0531742
6.91 0.0589579
6.92 0.0649342
6.93 0.0710775
6.94 0.0773329
6.95 0.0836484
6.96 0.0899792
6.97 0.0962747
6.98 0.102478
6.99 0.10855
7 0.114447
7.01 0.120124
7.02 0.125511
7.03 0.130606
7.04 0.135382
7.05 0.139814
7.06 0.143828
7.07 0.147455
7.08 0.150691
7.09 0.153528
7.1 0.155922
7.11 0.157892
7.12 0.159464
7.13 0.160641
7.14 0.161404
7.15 0.161749
7.16 0.161719
7.17 0.16132
7.18 0.160547
7.19 0.159367
7.2 0.15783
7.21 0.155939
7.22 0.153694
7.23 0.151044
7.24 0.148035
7.25 0.14467
7.26 0.14095
7.27 0.136837
7.28 0.132353
7.29 0.12752
7.3 0.122346
7.31 0.11682
7.32 0.110947
7.33 0.104778
7.34 0.0983324
7.35 0.0916316
7.36 0.0846866
7.37 0.077565
7.38 0.0703051
7.39 0.0629487
7.4 0.0555401
7.41 0.04814
7.42 0.0407988
7.43 0.0335674
7.44 0.0265201
7.45 0.0197083
7.46 0.013173
7.47 0.00696238
7.48 0.00115077
7.49 -0.00420014
7.5 -0.00908692
7.51 -0.0134747
7.52 -0.0173172
7.53 -0.0205262
7.54 -0.0231527
7.55 -0.0251814
7.56 -0.0266015
7.57 -0.0273158
7.58 -0.0274074
7.59 -0.026888
7.6 -0.025766
7.61 -0.0239914
7.62 -0.0216173
7.63 -0.0186945
7.64 -0.0152465
7.65 -0.0112673
7.66 -0.00678201
7.67 -0.00186776
7.68 0.00344077
7.69 0.00911598
7.7 0.0151443
7.71 0.0214387
7.72 0.0279559
7.73 0.0346509
7.74 0.0414895
7.75 0.048399
7.76 0.0553282
7.77 0.0622261
7.78 0.0690261
7.79 0.0756719
7.8 0.0821157
7.81 0.0883055
7.82 0.0941647
7.83 0.0996267
7.84 0.104672
7.85 0.109256
7.86 0.113319
7.87 0.116762
7.88 0.119618
7.89 0.121858
7.9 0.123458
7.91 0.124296
7.92 0.124453
7.93 0.123926
7.94 0.122714
7.95 0.120748
7.96 0.118081
7.97 0.114763
7.98 0.110814
7.99 0.106215
8 0.100992
8.01 0.0952276
8.02 0.0889555
8.03 0.0821958
8.04 0.0749477
8.05 0.0673058
8.06 0.0593044
8.07 0.0509771
8.08 0.0423155
8.09 0.0333961
8.1 0.0242486
8.11 0.0148988
8.12 0.00535299
8.13 -0.00435183
8.14 -0.0141875
8.15 -0.0241351
8.16 -0.034182
8.17 -0.0443079
8.18 -0.0544867
8.19 -0.0646995
8.2 -0.0749259
8.21 -0.0851391
8.22 -0.0953136
8.23 -0.105423
8.24 -0.115437
8.25 -0.125302
8.26 -0.134996
8.27 -0.144485
8.28 -0.15373
8.29 -0.162655
8.3 -0.171235
8.31 -0.179443
8.32 -0.187241
8.33 -0.194558
8.34 -0.201349
8.35 -0.207626
8.36 -0.213364
8.37 -0.218524
8.38 -0.223041
8.39 -0.22698
8.4 -0.230343
8.41 -0.233138
8.42 -0.235296
8.43 -0.236924
8.44 -0.238054
8.45 -0.238718
8.46 -0.238906
8.47 -0.238698
8.48 -0.238155
8.49 -0.237318
8.5 -0.236217
8.51 -0.2349
8.52 -0.233424
8.53 -0.231824
8.54 -0.230128
8.55 -0.228358
8.56 -0.226542
8.57 -0.224689
8.58 -0.222805
8.59 -0.22088
8.6 -0.218909
8.61 -0.216877
8.62 -0.214762
8.63 -0.212526
8.64 -0.210145
8.65 -0.207593
8.66 -0.204841
8.67 -0.20184
8.68 -0.198558
8.69 -0.19499
8.7 -0.19112
8.71 -0.186921
8.72 -0.18236
8.73 -0.177477
8.74 -0.17228
8.75 -0.166784
8.76 -0.160971
8.77 -0.154918
8.78 -0.148659
8.79 -0.142234
8.8 -0.135675
8.81 -0.129046
8.82 -0.122397
8.83 -0.115773
8.84 -0.109228
8.85 -0.102808
8.86 -0.0965423
8.87 -0.0904599
8.88 -0.0845923
8.89 -0.0789742
8.9 -0.0735858
8.91 -0.068425
8.92 -0.0634823
8.93 -0.0587691
8.94 -0.0542256
8.95 -0.0498207
8.96 -0.0455185
8.97 -0.0412825
8.98 -0.0370595
8.99 -0.032805
9 -0.0284779
9.01 -0.0240273
9.02 -0.019412
9.03 -0.0146128
9.04 -0.00960723
9.05 -0.00437016
9.06 0.00112423
9.07 0.00684668
9.08 0.0127866
9.09 0.0189261
9.1 0.0252614
9.11 0.0317273
9.12 0.0382837
9.13 0.044886
9.14 0.05148
9.15 0.0580078
9.16 0.0644195
9.17 0.0706661
9.18 0.0766793
9.19 0.0824097
9.2 0.0878382
9.21 0.0929346
9.22 0.0976596
9.23 0.101968
9.24 0.105896
9.25 0.109444
9.26 0.112622
9.27 0.115392
9.28 0.117836
9.29 0.119981
9.3 0.12186
9.31 0.123482
9.32 0.124909
9.33 0.126183
9.34 0.127337
9.35 0.128397
9.36 0.129395
9.37 0.130356
9.38 0.131294
9.39 0.132216
9.4 0.133121
9.41 0.134003
9.42 0.134847
9.43 0.135634
9.44 0.136323
9.45 0.136893
9.46 0.137311
9.47 0.137544
9.48 0.137526
9.49 0.137238
9.5 0.136659
9.51 0.135762
9.52 0.134497
9.53 0.132851
9.54 0.130844
9.55 0.128476
9.56 0.125742
9.57 0.122641
9.58 0.119238
9.59 0.115568
9.6 0.111668
9.61 0.107565
9.62 0.103342
9.63 0.099052
9.64 0.0947477
9.65 0.0904952
9.66 0.08635
9.67 0.0823584
9.68 0.0785643
9.69 0.0750294
9.7 0.0717874
9.71 0.068843
9.72 0.0662113
9.73 0.0639152
9.74 0.0619738
9.75 0.0603413
9.76 0.0590014
9.77 0.0579341
9.78 0.0571429
9.79 0.0565561
9.8 0.0561405
9.81 0.0558618
9.82 0.0556955
9.83 0.0555953
9.84 0.0555303
9.85 0.0554771
9.86 0.0554153
9.87 0.0553312
9.88 0.0552212
9.89 0.0550877
9.9 0.0549394
9.91 0.0547949
9.92 0.0546781
9.93 0.0546159
9.94 0.0546402
9.95 0.0548068
9.96 0.0551367
9.97 0.0556645
9.98 0.0564237
9.99 0.0574823
10 0.0588435
10.01 0.0605187
10.02 0.062521
10.03 0.0648867
10.04 0.0676052
10.05 0.0706411
10.06 0.0739741
10.07 0.0775879
10.08 0.0814528
10.09 0.0854958
10.1 0.0896668
10.11 0.0939113
10.12 0.0981633
10.13 0.102353
10.14 0.10642
10.15 0.110303
10.16 0.113905
10.17 0.117188
10.18 0.120111
10.19 0.122631
10.2 0.124668
10.21 0.126198
10.22 0.127232
10.23 0.127758
10.24 0.127744
10.25 0.127167
10.26 0.126094
10.27 0.124541
10.28 0.122525
10.29 0.120022
10.3 0.117127
10.31 0.113874
10.32 0.110297
10.33 0.106395
10.34 0.102237
10.35 0.0978624
10.36 0.0932987
10.37 0.0885591
10.38 0.0836739
10.39 0.0786717
10.4 0.073567
10.41 0.0683669
10.42 0.0630767
10.43 0.0577109
10.44 0.0522731
10.45 0.0467645
10.46 0.0411779
10.47 0.0355252
10.48 0.0298089
10.49 0.0240329
10.5 0.0181966
10.51 0.0123157
10.52 0.00640264
10.53 0.000471286
10.54 -0.00546022
10.55 -0.0113689
10.56 -0.0172331
10.57 -0.0230296
10.58 -0.0287271
10.59 -0.0342902
10.6 -0.0397044
10.61 -0.0449459
10.62 -0.0499893
10.63 -0.0547842
10.64 -0.0593437
10.65 -0.0636555
10.66 -0.0677111
10.67 -0.0714707
10.68 -0.0749643
10.69 -0.0782037
10.7 -0.0811986
10.71 -0.0839413
10.72 -0.0864594
10.73 -0.0887873
10.74 -0.0909465
10.75 -0.0929525
10.76 -0.0948264
10.77 -0.0966044
10.78 -0.0983067
10.79 -0.0999501
10.8 -0.101546
10.81 -0.103111
10.82 -0.104652
10.83 -0.106169
10.84 -0.107656
10.85 -0.109105
10.86 -0.110503
10.87 -0.111835
10.88 -0.11307
10.89 -0.114183
10.9 -0.115156
10.91 -0.115964
10.92 -0.116569
10.93 -0.116934
10.94 -0.117059
10.95 -0.116925
10.96 -0.116514
10.97 -0.11578
10.98 -0.114761
10.99 -0.113459
11 -0.111883
11.01 -0.110013
11.02 -0.107902
11.03 -0.105582
11.04 -0.103082
11.05 -0.100425
11.06 -0.0976601
11.07 -0.094834
11.08 -0.0919855
11.09 -0.0891567
11.1 -0.0863937
11.11 -0.083728
11.12 -0.0811902
11.13 -0.0788105
11.14 -0.0766347
11.15 -0.0746549
11.16 -0.0728805
11.17 -0.0713152
11.18 -0.0699854
11.19 -0.0688566
11.2 -0.0679114
11.21 -0.0671323
11.22 -0.0665103
11.23 -0.0660112
11.24 -0.0656009
11.25 -0.0652531
11.26 -0.0649427
11.27 -0.064641
11.28 -0.0643232
11.29 -0.0639707
11.3 -0.0635669
11.31 -0.0630926
11.32 -0.06255
11.33 -0.0619385
11.34 -0.061262
11.35 -0.0605225
11.36 -0.0597415
11.37 -0.0589369
11.38 -0.0581279
11.39 -0.0573399
11.4 -0.0565987
11.41 -0.0559257
11.42 -0.0553426
11.43 -0.0548781
11.44 -0.0545572
11.45 -0.0543825
11.46 -0.054364
11.47 -0.0545112
11.48 -0.0548436
11.49 -0.0553339
11.5 -0.0559728
11.51 -0.0567465
11.52 -0.0576512
11.53 -0.0586472
11.54 -0.0597075
11.55 -0.0608051
11.56 -0.0619096
11.57 -0.0629868
11.58 -0.0640082
11.59 -0.0649473
11.6 -0.0657708
11.61 -0.0664493
11.62 -0.0669763
11.63 -0.0673384
11.64 -0.0675222
11.65 -0.0675029
11.66 -0.0673055
11.67 -0.0669355
11.68 -0.0664019
11.69 -0.0656981
11.7 -0.0648621
11.71 -0.0639149
11.72 -0.062877
11.73 -0.0617644
11.74 -0.0606056
11.75 -0.0594244
11.76 -0.0582395
11.77 -0.0570693
11.78 -0.0559309
11.79 -0.0548325
11.8 -0.0537806
11.81 -0.0527794
11.82 -0.0518329
11.83 -0.0509292
11.84 -0.05006
11.85 -0.0492143
11.86 -0.048378
11.87 -0.0475323
11.88 -0.0466605
11.89 -0.0457458
11.9 -0.0447632
11.91 -0.0436979
11.92 -0.0425394
11.93 -0.0412762
11.94 -0.0398911
11.95 -0.0383746
11.96 -0.0367353
11.97 -0.0349746
11.98 -0.0330941
11.99 -0.0310919
12 -0.0289947
12.01 -0.0268162
12.02 -0.0245721
12.03 -0.0222753
12.04 -0.0199528
12.05 -0.0176236
12.06 -0.0153057
12.07 -0.0130211
