[DEFAULT]

version = diffpy.pdfgetx-2.2.1

# input and output specifications
dataformat = twotheta
inputfile = Synthetic_CSH_CSH_pdf_ramp_600_00_normalized.chi
backgroundfiles = quartz_030degC_normalized.chi
outputtype = gr

# PDF calculation setup
mode = xray
wavelength = 0.2113
twothetazero = 0
composition = CaO SiO2
bgscales = 1.0
rpoly = 0.9
qmaxinst = 23.7031
qmin = 0.5
qmax = 20
rmin = 0
rmax = 60
rstep = 0.01

# End of config --------------------------------------------------------------

#### start data
#S 1
#L r(Å)  G(Å$^{-2}$)
0 0
0.01 -0.00215939
0.02 -0.00424128
0.03 -0.0061799
0.04 -0.00791355
0.05 -0.00934888
0.06 -0.0104529
0.07 -0.0112003
0.08 -0.0115651
0.09 -0.0115003
0.1 -0.0110056
0.11 -0.010126
0.12 -0.00888647
0.13 -0.00731192
0.14 -0.0054376
0.15 -0.00335968
0.16 -0.00114423
0.17 0.00113707
0.18 0.00339496
0.19 0.00554511
0.2 0.00751167
0.21 0.00922227
0.22 0.0105632
0.23 0.0114952
0.24 0.0119851
0.25 0.0119989
0.26 0.011474
0.27 0.010408
0.28 0.00885334
0.29 0.00683927
0.3 0.00439517
0.31 0.00156694
0.32 -0.00152056
0.33 -0.0047779
0.34 -0.00810538
0.35 -0.0113713
0.36 -0.0144541
0.37 -0.017237
0.38 -0.0196036
0.39 -0.0213619
0.4 -0.0224369
0.41 -0.0227549
0.42 -0.0222346
0.43 -0.0207293
0.44 -0.0181908
0.45 -0.0146649
0.46 -0.0101482
0.47 -0.00461701
0.48 0.001946
0.49 0.00936178
0.5 0.0175436
0.51 0.0263888
0.52 0.0358349
0.53 0.0456431
0.54 0.0556622
0.55 0.0657329
0.56 0.075656
0.57 0.0852516
0.58 0.0943627
0.59 0.102834
0.6 0.110441
0.61 0.117034
0.62 0.122562
0.63 0.126931
0.64 0.130005
0.65 0.131637
0.66 0.131942
0.67 0.130917
0.68 0.128572
0.69 0.124762
0.7 0.119751
0.71 0.113614
0.72 0.106441
0.73 0.0982301
0.74 0.0891941
0.75 0.0794791
0.76 0.0692013
0.77 0.0584468
0.78 0.0473534
0.79 0.0360536
0.8 0.0246401
0.81 0.0131971
0.82 0.00180873
0.83 -0.00946951
0.84 -0.0205956
0.85 -0.0315376
0.86 -0.0422453
0.87 -0.0527404
0.88 -0.0630233
0.89 -0.0730994
0.9 -0.0829536
0.91 -0.0926161
0.92 -0.102101
0.93 -0.111412
0.94 -0.120532
0.95 -0.129451
0.96 -0.138162
0.97 -0.146636
0.98 -0.154818
0.99 -0.162631
1 -0.170048
1.01 -0.177007
1.02 -0.183433
1.03 -0.189162
1.04 -0.194208
1.05 -0.198508
1.06 -0.202005
1.07 -0.204541
1.08 -0.206168
1.09 -0.2069
1.1 -0.206748
1.11 -0.205669
1.12 -0.203743
1.13 -0.201112
1.14 -0.197876
1.15 -0.194138
1.16 -0.190047
1.17 -0.185809
1.18 -0.181595
1.19 -0.177582
1.2 -0.174028
1.21 -0.171066
1.22 -0.168856
1.23 -0.167542
1.24 -0.167393
1.25 -0.168409
1.26 -0.170614
1.27 -0.174027
1.28 -0.178732
1.29 -0.18462
1.3 -0.191495
1.31 -0.199199
1.32 -0.207557
1.33 -0.216308
1.34 -0.225113
1.35 -0.233671
1.36 -0.241647
1.37 -0.248531
1.38 -0.254081
1.39 -0.257964
1.4 -0.259864
1.41 -0.259148
1.42 -0.255764
1.43 -0.249569
1.44 -0.240405
1.45 -0.227877
1.46 -0.212027
1.47 -0.193106
1.48 -0.171224
1.49 -0.146421
1.5 -0.118864
1.51 -0.089169
1.52 -0.0577202
1.53 -0.0249394
1.54 0.00872366
1.55 0.0425726
1.56 0.0760658
1.57 0.108651
1.58 0.139506
1.59 0.168176
1.6 0.194194
1.61 0.217089
1.62 0.236064
1.63 0.250799
1.64 0.26125
1.65 0.267207
1.66 0.268279
1.67 0.264181
1.68 0.255455
1.69 0.242234
1.7 0.224662
1.71 0.202556
1.72 0.176891
1.73 0.148085
1.74 0.1166
1.75 0.0827134
1.76 0.0472679
1.77 0.0108548
1.78 -0.025987
1.79 -0.0626691
1.8 -0.098601
1.81 -0.133334
1.82 -0.166449
1.83 -0.197445
1.84 -0.22585
1.85 -0.251643
1.86 -0.274653
1.87 -0.29472
1.88 -0.311425
1.89 -0.325215
1.9 -0.336174
1.91 -0.344431
1.92 -0.349837
1.93 -0.352923
1.94 -0.35398
1.95 -0.353258
1.96 -0.350887
1.97 -0.347219
1.98 -0.342579
1.99 -0.337183
2 -0.331194
2.01 -0.324775
2.02 -0.318086
2.03 -0.311198
2.04 -0.304137
2.05 -0.296865
2.06 -0.289348
2.07 -0.281496
2.08 -0.27319
2.09 -0.264186
2.1 -0.254372
2.11 -0.243594
2.12 -0.231684
2.13 -0.218339
2.14 -0.203441
2.15 -0.186954
2.16 -0.168795
2.17 -0.148809
2.18 -0.126921
2.19 -0.103352
2.2 -0.0781936
2.21 -0.0515603
2.22 -0.0235205
2.23 0.00548782
2.24 0.035186
2.25 0.0652619
2.26 0.0953288
2.27 0.124966
2.28 0.153795
2.29 0.18143
2.3 0.207293
2.31 0.231015
2.32 0.252352
2.33 0.270991
2.34 0.286457
2.35 0.298353
2.36 0.306809
2.37 0.311704
2.38 0.312892
2.39 0.309943
2.4 0.303427
2.41 0.293463
2.42 0.280222
2.43 0.263527
2.44 0.244066
2.45 0.22221
2.46 0.198307
2.47 0.172596
2.48 0.145615
2.49 0.117856
2.5 0.0897222
2.51 0.0616349
2.52 0.0340614
2.53 0.00734553
2.54 -0.0181853
2.55 -0.0421948
2.56 -0.064187
2.57 -0.0841691
2.58 -0.101977
2.59 -0.117492
2.6 -0.130291
2.61 -0.14065
2.62 -0.148631
2.63 -0.154299
2.64 -0.157536
2.65 -0.158611
2.66 -0.157819
2.67 -0.155355
2.68 -0.151355
2.69 -0.146053
2.7 -0.139823
2.71 -0.132909
2.72 -0.125546
2.73 -0.117986
2.74 -0.1105
2.75 -0.103296
2.76 -0.0965625
2.77 -0.0905829
2.78 -0.0854337
2.79 -0.0812184
2.8 -0.078025
2.81 -0.0760336
2.82 -0.0752251
2.83 -0.0755404
2.84 -0.0769553
2.85 -0.0794859
2.86 -0.083073
2.87 -0.0875215
2.88 -0.0927179
2.89 -0.0985454
2.9 -0.104889
2.91 -0.111518
2.92 -0.118273
2.93 -0.124993
2.94 -0.131465
2.95 -0.137537
2.96 -0.143062
2.97 -0.1479
2.98 -0.151819
2.99 -0.15473
3 -0.156582
3.01 -0.157299
3.02 -0.156738
3.03 -0.154823
3.04 -0.151654
3.05 -0.14724
3.06 -0.141576
3.07 -0.134599
3.08 -0.126539
3.09 -0.117487
3.1 -0.107544
3.11 -0.0967302
3.12 -0.085296
3.13 -0.0733864
3.14 -0.0611419
3.15 -0.0486995
3.16 -0.0362344
3.17 -0.0238897
3.18 -0.0117925
3.19 -9.23967e-05
3.2 0.0110776
3.21 0.0216684
3.22 0.0316121
3.23 0.0408369
3.24 0.0492347
3.25 0.0568919
3.26 0.063821
3.27 0.0700523
3.28 0.075545
3.29 0.0804639
3.3 0.084896
3.31 0.088932
3.32 0.0926498
3.33 0.0961895
3.34 0.0996712
3.35 0.1032
3.36 0.106892
3.37 0.110862
3.38 0.115174
3.39 0.119894
3.4 0.125087
3.41 0.130839
3.42 0.137101
3.43 0.143865
3.44 0.151105
3.45 0.158833
3.46 0.166916
3.47 0.175269
3.48 0.183797
3.49 0.192391
3.5 0.200913
3.51 0.20924
3.52 0.21725
3.53 0.224783
3.54 0.231691
3.55 0.23791
3.56 0.243343
3.57 0.247879
3.58 0.251349
3.59 0.253821
3.6 0.255268
3.61 0.255679
3.62 0.254908
3.63 0.253138
3.64 0.250426
3.65 0.246833
3.66 0.242358
3.67 0.237156
3.68 0.231365
3.69 0.225089
3.7 0.218416
3.71 0.211472
3.72 0.204391
3.73 0.197271
3.74 0.190206
3.75 0.183301
3.76 0.176611
3.77 0.170186
3.78 0.164063
3.79 0.158318
3.8 0.152908
3.81 0.147822
3.82 0.143038
3.83 0.138551
3.84 0.134292
3.85 0.130197
3.86 0.126212
3.87 0.122278
3.88 0.118326
3.89 0.114299
3.9 0.110148
3.91 0.105822
3.92 0.101268
3.93 0.096487
3.94 0.0914713
3.95 0.0862249
3.96 0.080735
3.97 0.0750695
3.98 0.0692738
3.99 0.063403
4 0.0575293
4.01 0.0517398
4.02 0.0461151
4.03 0.0407401
4.04 0.0357336
4.05 0.031202
4.06 0.0271978
4.07 0.0237981
4.08 0.0211001
4.09 0.0192378
4.1 0.0181731
4.11 0.0179409
4.12 0.0185634
4.13 0.0201847
4.14 0.0226621
4.15 0.0259698
4.16 0.0300708
4.17 0.0349959
4.18 0.0406156
4.19 0.0468234
4.2 0.0535352
4.21 0.0606839
4.22 0.0681528
4.23 0.0758077
4.24 0.083545
4.25 0.0912556
4.26 0.0988093
4.27 0.106114
4.28 0.113078
4.29 0.119613
4.3 0.12555
4.31 0.130892
4.32 0.135579
4.33 0.139564
4.34 0.142715
4.35 0.145058
4.36 0.146609
4.37 0.147361
4.38 0.147256
4.39 0.14631
4.4 0.14461
4.41 0.142188
4.42 0.139056
4.43 0.135216
4.44 0.130801
4.45 0.125865
4.46 0.120468
4.47 0.114617
4.48 0.108447
4.49 0.102022
4.5 0.0954061
4.51 0.0886555
4.52 0.0818514
4.53 0.0750568
4.54 0.0683271
4.55 0.0617272
4.56 0.0553124
4.57 0.0491127
4.58 0.0431626
4.59 0.0375027
4.6 0.0321808
4.61 0.0271758
4.62 0.0224936
4.63 0.0181333
4.64 0.0141336
4.65 0.0104264
4.66 0.00698822
4.67 0.00378948
4.68 0.000815336
4.69 -0.00199815
4.7 -0.00470321
4.71 -0.00734726
4.72 -0.00998297
4.73 -0.0126706
4.74 -0.0154598
4.75 -0.0183981
4.76 -0.0215408
4.77 -0.0249534
4.78 -0.0286465
4.79 -0.0326488
4.8 -0.0369838
4.81 -0.041721
4.82 -0.0468125
4.83 -0.0522552
4.84 -0.0580383
4.85 -0.0641794
4.86 -0.0706189
4.87 -0.0773097
4.88 -0.0842106
4.89 -0.0912844
4.9 -0.0984682
4.91 -0.105695
4.92 -0.11291
4.93 -0.120049
4.94 -0.127037
4.95 -0.133831
4.96 -0.14038
4.97 -0.146636
4.98 -0.152502
4.99 -0.157991
5 -0.163076
5.01 -0.167736
5.02 -0.171901
5.03 -0.175602
5.04 -0.178856
5.05 -0.181668
5.06 -0.184014
5.07 -0.185919
5.08 -0.187434
5.09 -0.188583
5.1 -0.189374
5.11 -0.189815
5.12 -0.189969
5.13 -0.189858
5.14 -0.189501
5.15 -0.188886
5.16 -0.188064
5.17 -0.187044
5.18 -0.185835
5.19 -0.184417
5.2 -0.182807
5.21 -0.181009
5.22 -0.179018
5.23 -0.17681
5.24 -0.17438
5.25 -0.171737
5.26 -0.168875
5.27 -0.165779
5.28 -0.162436
5.29 -0.158874
5.3 -0.1551
5.31 -0.151125
5.32 -0.146942
5.33 -0.142603
5.34 -0.138133
5.35 -0.133565
5.36 -0.128926
5.37 -0.124267
5.38 -0.119628
5.39 -0.115048
5.4 -0.11058
5.41 -0.106267
5.42 -0.102136
5.43 -0.0982195
5.44 -0.0945572
5.45 -0.0911904
5.46 -0.0881056
5.47 -0.0853098
5.48 -0.0828062
5.49 -0.0806259
5.5 -0.0787095
5.51 -0.0770345
5.52 -0.0755726
5.53 -0.0743083
5.54 -0.0731791
5.55 -0.0721372
5.56 -0.0711381
5.57 -0.0701321
5.58 -0.069066
5.59 -0.0678981
5.6 -0.0665894
5.61 -0.0650945
5.62 -0.063367
5.63 -0.0614058
5.64 -0.0591964
5.65 -0.0567286
5.66 -0.0539688
5.67 -0.0509653
5.68 -0.0477357
5.69 -0.0443038
5.7 -0.0406821
5.71 -0.0369296
5.72 -0.033092
5.73 -0.029213
5.74 -0.0253429
5.75 -0.0215364
5.76 -0.0178374
5.77 -0.0142887
5.78 -0.0109417
5.79 -0.00785025
5.8 -0.00502149
5.81 -0.00247824
5.82 -0.000240981
5.83 0.00163739
5.84 0.00320085
5.85 0.00445466
5.86 0.00541013
5.87 0.00604985
5.88 0.00642985
5.89 0.00658543
5.9 0.00654748
5.91 0.00633779
5.92 0.0060021
5.93 0.00558599
5.94 0.00512419
5.95 0.00465124
5.96 0.00420487
5.97 0.00381319
5.98 0.00350057
5.99 0.00328945
6 0.00321456
6.01 0.00327252
6.02 0.00347167
6.03 0.00381698
6.04 0.00433013
6.05 0.00499364
6.06 0.00580013
6.07 0.00674461
6.08 0.00783301
6.09 0.00905389
6.1 0.0103926
6.11 0.0118435
6.12 0.0134081
6.13 0.0150878
6.14 0.0168703
6.15 0.0187557
6.16 0.0207474
6.17 0.022863
6.18 0.0250916
6.19 0.0274381
6.2 0.0299079
6.21 0.032524
6.22 0.0352768
6.23 0.0381662
6.24 0.0411935
6.25 0.0443707
6.26 0.0476893
6.27 0.0511341
6.28 0.0546958
6.29 0.0583674
6.3 0.0621353
6.31 0.0659709
6.32 0.069854
6.33 0.0737627
6.34 0.07767
6.35 0.081549
6.36 0.0853753
6.37 0.0891253
6.38 0.0927598
6.39 0.0962667
6.4 0.0996303
6.41 0.102835
6.42 0.105852
6.43 0.108676
6.44 0.111314
6.45 0.113766
6.46 0.116023
6.47 0.118085
6.48 0.119981
6.49 0.121722
6.5 0.123318
6.51 0.124773
6.52 0.126119
6.53 0.127374
6.54 0.12855
6.55 0.129654
6.56 0.130704
6.57 0.131711
6.58 0.132678
6.59 0.133604
6.6 0.134487
6.61 0.135326
6.62 0.13611
6.63 0.136823
6.64 0.137446
6.65 0.137969
6.66 0.138374
6.67 0.138641
6.68 0.138729
6.69 0.138641
6.7 0.138362
6.71 0.137877
6.72 0.137144
6.73 0.136181
6.74 0.134989
6.75 0.133569
6.76 0.131903
6.77 0.13001
6.78 0.127917
6.79 0.125641
6.8 0.123193
6.81 0.120593
6.82 0.117882
6.83 0.115086
6.84 0.11223
6.85 0.109341
6.86 0.106451
6.87 0.103583
6.88 0.100758
6.89 0.0980053
6.9 0.0953344
6.91 0.0927548
6.92 0.0902737
6.93 0.0879055
6.94 0.0856451
6.95 0.0834826
6.96 0.0814109
6.97 0.079425
6.98 0.077513
6.99 0.0756541
7 0.0738341
7.01 0.0720388
7.02 0.0702534
7.03 0.0684624
7.04 0.0666548
7.05 0.0648214
7.06 0.0629499
7.07 0.0610398
7.08 0.0590907
7.09 0.0571037
7.1 0.0550797
7.11 0.0530273
7.12 0.0509567
7.13 0.0488772
7.14 0.0467997
7.15 0.0447372
7.16 0.0426994
7.17 0.0406956
7.18 0.0387349
7.19 0.0368293
7.2 0.0349763
7.21 0.0331764
7.22 0.0314276
7.23 0.029731
7.24 0.0280716
7.25 0.0264378
7.26 0.0248167
7.27 0.0231917
7.28 0.0215437
7.29 0.0198559
7.3 0.0181109
7.31 0.0162861
7.32 0.0143607
7.33 0.0123287
7.34 0.0101793
7.35 0.00790121
7.36 0.00547564
7.37 0.00291983
7.38 0.000237842
7.39 -0.00256242
7.4 -0.00548262
7.41 -0.00849042
7.42 -0.0115647
7.43 -0.0146831
7.44 -0.0178199
7.45 -0.0209431
7.46 -0.0240243
7.47 -0.0270358
7.48 -0.0299423
7.49 -0.0327102
7.5 -0.0353259
7.51 -0.0377691
7.52 -0.0400169
7.53 -0.0420327
7.54 -0.043834
7.55 -0.0454164
7.56 -0.0467798
7.57 -0.0478974
7.58 -0.0488081
7.59 -0.0495269
7.6 -0.0500692
7.61 -0.0504377
7.62 -0.0506651
7.63 -0.0507807
7.64 -0.0508064
7.65 -0.0507607
7.66 -0.0506675
7.67 -0.0505518
7.68 -0.0504309
7.69 -0.0503205
7.7 -0.0502368
7.71 -0.0501868
7.72 -0.0501763
7.73 -0.0502083
7.74 -0.0502889
7.75 -0.0504093
7.76 -0.0505639
7.77 -0.050746
7.78 -0.0509488
7.79 -0.051161
7.8 -0.0513727
7.81 -0.0515753
7.82 -0.0517593
7.83 -0.0519165
7.84 -0.0520441
7.85 -0.0521392
7.86 -0.0522002
7.87 -0.0522254
7.88 -0.0522233
7.89 -0.0521993
7.9 -0.0521608
7.91 -0.0521168
7.92 -0.052079
7.93 -0.0520575
7.94 -0.0520623
7.95 -0.0521079
7.96 -0.0522018
7.97 -0.0523488
7.98 -0.0525539
7.99 -0.052824
8 -0.0531602
8.01 -0.0535542
8.02 -0.0540005
8.03 -0.0544924
8.04 -0.0550209
8.05 -0.055568
8.06 -0.0561194
8.07 -0.0566599
8.08 -0.0571671
8.09 -0.0576269
8.1 -0.0580244
8.11 -0.0583455
8.12 -0.0585663
8.13 -0.0586814
8.14 -0.0586879
8.15 -0.0585821
8.16 -0.0583547
8.17 -0.058008
8.18 -0.0575584
8.19 -0.0570157
8.2 -0.0563903
8.21 -0.0556944
8.22 -0.0549555
8.23 -0.0541929
8.24 -0.0534264
8.25 -0.0526821
8.26 -0.0519793
8.27 -0.0513363
8.28 -0.0507695
8.29 -0.0503046
8.3 -0.0499478
8.31 -0.0497015
8.32 -0.0495689
8.33 -0.0495576
8.34 -0.0496625
8.35 -0.0498646
8.36 -0.0501509
8.37 -0.0505072
8.38 -0.0509153
8.39 -0.0513456
8.4 -0.0517752
8.41 -0.0521805
8.42 -0.0525263
8.43 -0.0527942
8.44 -0.0529632
8.45 -0.0530138
8.46 -0.052912
8.47 -0.0526525
8.48 -0.0522324
8.49 -0.0516467
8.5 -0.0508817
8.51 -0.0499404
8.52 -0.0488446
8.53 -0.047606
8.54 -0.0462352
8.55 -0.0447437
8.56 -0.0431671
8.57 -0.0415274
8.58 -0.0398474
8.59 -0.038151
8.6 -0.0364661
8.61 -0.0348139
8.62 -0.0332142
8.63 -0.0316945
8.64 -0.0302663
8.65 -0.0289376
8.66 -0.0277163
8.67 -0.0266163
8.68 -0.0256395
8.69 -0.0247742
8.7 -0.0240155
8.71 -0.0233593
8.72 -0.0228016
8.73 -0.0223192
8.74 -0.0218997
8.75 -0.0215301
8.76 -0.0212013
8.77 -0.0208938
8.78 -0.0205962
8.79 -0.0202986
8.8 -0.0199908
8.81 -0.0196662
8.82 -0.0193211
8.83 -0.0189534
8.84 -0.0185612
8.85 -0.0181463
8.86 -0.0177139
8.87 -0.0172684
8.88 -0.0168147
8.89 -0.0163591
8.9 -0.0159076
8.91 -0.015465
8.92 -0.0150352
8.93 -0.0146235
8.94 -0.0142283
8.95 -0.0138485
8.96 -0.0134813
8.97 -0.0131218
8.98 -0.0127616
8.99 -0.0123914
9 -0.0120012
9.01 -0.0115761
9.02 -0.0111017
9.03 -0.0105685
9.04 -0.00996454
9.05 -0.00927468
9.06 -0.00848032
9.07 -0.00758374
9.08 -0.0065793
9.09 -0.00546359
9.1 -0.00421897
9.11 -0.0028664
9.12 -0.00141209
9.13 0.000134954
9.14 0.00177113
9.15 0.00347268
9.16 0.00521969
9.17 0.00699367
9.18 0.00877387
9.19 0.010536
9.2 0.01226
9.21 0.0139266
9.22 0.0155141
9.23 0.0169974
9.24 0.0183732
9.25 0.0196319
9.26 0.0207667
9.27 0.0217552
9.28 0.0226188
9.29 0.0233631
9.3 0.0239966
9.31 0.024521
9.32 0.0249624
9.33 0.025342
9.34 0.0256792
9.35 0.0259946
9.36 0.0263132
9.37 0.0266569
9.38 0.027045
9.39 0.0274985
9.4 0.0280408
9.41 0.0286756
9.42 0.0294112
9.43 0.0302529
9.44 0.0312171
9.45 0.0322833
9.46 0.0334435
9.47 0.0346866
9.48 0.0360044
9.49 0.0373707
9.5 0.038763
9.51 0.0401603
9.52 0.041537
9.53 0.0428671
9.54 0.0441312
9.55 0.04531
9.56 0.0463806
9.57 0.0473187
9.58 0.0481263
9.59 0.0487971
9.6 0.0493278
9.61 0.0497007
9.62 0.0499443
9.63 0.0500695
9.64 0.0500907
9.65 0.050017
9.66 0.0498803
9.67 0.049706
9.68 0.0495179
9.69 0.0493433
9.7 0.0492104
9.71 0.0491403
9.72 0.0491531
9.73 0.0492716
9.74 0.0495196
9.75 0.0498941
9.76 0.0503999
9.77 0.0510383
9.78 0.0518219
9.79 0.0527202
9.8 0.0537184
9.81 0.0547979
9.82 0.0559406
9.83 0.057111
9.84 0.0582792
9.85 0.0594152
9.86 0.0604802
9.87 0.0614392
9.88 0.0622679
9.89 0.0629393
9.9 0.0634187
9.91 0.0636688
9.92 0.0636942
9.93 0.0634829
9.94 0.0630252
9.95 0.0622841
9.96 0.0613004
9.97 0.0600827
9.98 0.058644
9.99 0.0569774
10 0.0551278
10.01 0.053126
10.02 0.050999
10.03 0.0487693
10.04 0.0464742
10.05 0.0441494
10.06 0.0418236
10.07 0.0395267
10.08 0.0372914
10.09 0.0351354
10.1 0.0330773
10.11 0.0311332
10.12 0.0293323
10.13 0.0276631
10.14 0.0261271
10.15 0.0247224
10.16 0.0234583
10.17 0.0223107
10.18 0.0212627
10.19 0.0202988
10.2 0.0194056
10.21 0.0185587
10.22 0.0177338
10.23 0.0169108
10.24 0.0160679
10.25 0.0151809
10.26 0.0142354
10.27 0.0132164
10.28 0.0121101
10.29 0.0108921
10.3 0.00956925
10.31 0.00813791
10.32 0.00659747
10.33 0.00493662
10.34 0.00317303
10.35 0.00131797
10.36 -0.000617907
10.37 -0.00262691
10.38 -0.00468991
10.39 -0.0067865
10.4 -0.00889984
10.41 -0.0110115
10.42 -0.0130999
10.43 -0.0151483
10.44 -0.0171403
10.45 -0.0190591
10.46 -0.0208767
10.47 -0.0225918
10.48 -0.0241936
10.49 -0.0256731
10.5 -0.0270047
10.51 -0.0281973
10.52 -0.0292513
10.53 -0.0301661
10.54 -0.0309299
10.55 -0.0315507
10.56 -0.0320427
10.57 -0.0324125
10.58 -0.0326626
10.59 -0.032799
10.6 -0.0328442
10.61 -0.03281
10.62 -0.0327076
10.63 -0.032545
10.64 -0.0323445
10.65 -0.0321194
10.66 -0.0318825
10.67 -0.0316484
10.68 -0.0314306
10.69 -0.0312402
10.7 -0.0310875
10.71 -0.0309868
10.72 -0.0309459
10.73 -0.0309676
10.74 -0.0310565
10.75 -0.0312195
10.76 -0.0314611
10.77 -0.0317728
10.78 -0.0321519
10.79 -0.0325948
10.8 -0.0331013
10.81 -0.0336543
10.82 -0.0342444
10.83 -0.0348608
10.84 -0.0354923
10.85 -0.036123
10.86 -0.0367396
10.87 -0.0373292
10.88 -0.0378738
10.89 -0.0383607
10.9 -0.0387813
10.91 -0.0391258
10.92 -0.0393806
10.93 -0.0395341
10.94 -0.0395912
10.95 -0.0395499
10.96 -0.039409
10.97 -0.0391603
10.98 -0.0388233
10.99 -0.0384059
11 -0.0379181
11.01 -0.0373653
11.02 -0.03677
11.03 -0.0361484
11.04 -0.035516
11.05 -0.0348913
11.06 -0.0342931
11.07 -0.0337363
11.08 -0.0332352
11.09 -0.0328079
11.1 -0.0324704
11.11 -0.0322241
11.12 -0.0320746
11.13 -0.0320272
11.14 -0.0320938
11.15 -0.0322565
11.16 -0.0325087
11.17 -0.032841
11.18 -0.033249
11.19 -0.0337074
11.2 -0.0341979
11.21 -0.0347017
11.22 -0.0351962
11.23 -0.0356577
11.24 -0.0360662
11.25 -0.0364019
11.26 -0.0366392
11.27 -0.0367539
11.28 -0.036741
11.29 -0.0365887
11.3 -0.0362846
11.31 -0.0358045
11.32 -0.0351679
11.33 -0.0343769
11.34 -0.033437
11.35 -0.0323389
11.36 -0.0311141
11.37 -0.0297809
11.38 -0.0283575
11.39 -0.0268589
11.4 -0.0253139
11.41 -0.023749
11.42 -0.0221872
11.43 -0.0206542
11.44 -0.0191775
11.45 -0.0177739
11.46 -0.0164614
11.47 -0.0152582
11.48 -0.0141926
11.49 -0.0132581
11.5 -0.0124603
11.51 -0.0118014
11.52 -0.0112997
11.53 -0.0109319
11.54 -0.0106876
11.55 -0.010556
11.56 -0.0105324
11.57 -0.010594
11.58 -0.0107183
11.59 -0.0108875
11.6 -0.0110839
11.61 -0.0112862
11.62 -0.0114754
11.63 -0.0116355
11.64 -0.011751
11.65 -0.011802
11.66 -0.0117859
11.67 -0.0116962
11.68 -0.0115292
11.69 -0.0112729
11.7 -0.0109403
11.71 -0.0105378
11.72 -0.010073
11.73 -0.00955152
11.74 -0.00898993
11.75 -0.0084044
11.76 -0.00780925
11.77 -0.00722063
11.78 -0.00665676
11.79 -0.00613104
11.8 -0.00565668
11.81 -0.00524761
11.82 -0.00492344
11.83 -0.00468295
11.84 -0.00453154
11.85 -0.00447229
11.86 -0.00451915
11.87 -0.00465707
11.88 -0.00487978
11.89 -0.00518003
11.9 -0.00555466
11.91 -0.00598666
11.92 -0.00645956
