[DEFAULT]

version = diffpy.pdfgetx-2.2.1

# input and output specifications
dataformat = twotheta
inputfile = Synthetic_CSH_CSH_pdf_ramp_700_00_normalized.chi
backgroundfiles = quartz_030degC_normalized.chi
outputtype = gr

# PDF calculation setup
mode = xray
wavelength = 0.2113
twothetazero = 0
composition = CaO SiO2
bgscales = 1.0
rpoly = 0.9
qmaxinst = 23.7031
qmin = 0.5
qmax = 20
rmin = 0
rmax = 60
rstep = 0.01

# End of config --------------------------------------------------------------

#### start data
#S 1
#L r(Å)  G(Å$^{-2}$)
0 0
0.01 -0.0035979
0.02 -0.00705803
0.03 -0.0102639
0.04 -0.0131069
0.05 -0.015424
0.06 -0.0171604
0.07 -0.0182755
0.08 -0.0187297
0.09 -0.0184493
0.1 -0.0174435
0.11 -0.0157986
0.12 -0.0135673
0.13 -0.0108046
0.14 -0.00758569
0.15 -0.00407797
0.16 -0.000400243
0.17 0.00332159
0.18 0.00692458
0.19 0.0102802
0.2 0.0132673
0.21 0.0157746
0.22 0.017623
0.23 0.0187708
0.24 0.0191854
0.25 0.0188334
0.26 0.0176421
0.27 0.0156372
0.28 0.0129261
0.29 0.00957907
0.3 0.00567017
0.31 0.0013026
0.32 -0.00332826
0.33 -0.00807548
0.34 -0.0127824
0.35 -0.0172309
0.36 -0.0212727
0.37 -0.0247514
0.38 -0.0275195
0.39 -0.029323
0.4 -0.0301035
0.41 -0.029802
0.42 -0.0283512
0.43 -0.0256073
0.44 -0.0215668
0.45 -0.0163424
0.46 -0.00998254
0.47 -0.00251991
0.48 0.00599252
0.49 0.0153049
0.5 0.0252695
0.51 0.0357242
0.52 0.0465116
0.53 0.0573783
0.54 0.068137
0.55 0.0786026
0.56 0.0885142
0.57 0.0977212
0.58 0.106089
0.59 0.113483
0.6 0.119686
0.61 0.124602
0.62 0.128249
0.63 0.130588
0.64 0.131543
0.65 0.131033
0.66 0.129246
0.67 0.126237
0.68 0.122068
0.69 0.116685
0.7 0.110359
0.71 0.1032
0.72 0.0953164
0.73 0.0867593
0.74 0.077711
0.75 0.0682951
0.76 0.0586076
0.77 0.0487259
0.78 0.0387402
0.79 0.0287221
0.8 0.018718
0.81 0.00876541
0.82 -0.00110683
0.83 -0.0108972
0.84 -0.0206068
0.85 -0.0302435
0.86 -0.0398148
0.87 -0.0493483
0.88 -0.0588607
0.89 -0.0683667
0.9 -0.0778776
0.91 -0.0873959
0.92 -0.0969148
0.93 -0.106419
0.94 -0.115874
0.95 -0.125236
0.96 -0.134459
0.97 -0.143483
0.98 -0.152226
0.99 -0.160577
1 -0.16849
1.01 -0.175886
1.02 -0.18268
1.03 -0.188692
1.04 -0.193951
1.05 -0.198403
1.06 -0.202009
1.07 -0.204627
1.08 -0.206339
1.09 -0.207189
1.1 -0.207213
1.11 -0.206405
1.12 -0.204873
1.13 -0.202773
1.14 -0.200219
1.15 -0.197333
1.16 -0.194275
1.17 -0.191227
1.18 -0.188343
1.19 -0.18578
1.2 -0.183773
1.21 -0.182399
1.22 -0.181777
1.23 -0.182003
1.24 -0.183278
1.25 -0.185557
1.26 -0.18882
1.27 -0.193042
1.28 -0.19824
1.29 -0.20428
1.3 -0.210965
1.31 -0.21813
1.32 -0.225584
1.33 -0.233068
1.34 -0.240308
1.35 -0.247043
1.36 -0.252989
1.37 -0.257683
1.38 -0.260981
1.39 -0.262623
1.4 -0.262367
1.41 -0.259689
1.42 -0.2546
1.43 -0.24702
1.44 -0.236847
1.45 -0.223777
1.46 -0.20788
1.47 -0.189395
1.48 -0.168433
1.49 -0.145043
1.5 -0.119374
1.51 -0.0919446
1.52 -0.0630716
1.53 -0.0331011
1.54 -0.00239707
1.55 0.0284743
1.56 0.0590749
1.57 0.088958
1.58 0.117458
1.59 0.144199
1.6 0.168794
1.61 0.190846
1.62 0.209686
1.63 0.225023
1.64 0.236788
1.65 0.24477
1.66 0.248593
1.67 0.247948
1.68 0.243237
1.69 0.234506
1.7 0.221801
1.71 0.204835
1.72 0.184404
1.73 0.160792
1.74 0.134327
1.75 0.105089
1.76 0.0738151
1.77 0.0409885
1.78 0.00704853
1.79 -0.0275794
1.8 -0.0623502
1.81 -0.0967981
1.82 -0.130514
1.83 -0.163029
1.84 -0.19386
1.85 -0.222828
1.86 -0.249672
1.87 -0.274131
1.88 -0.295695
1.89 -0.314597
1.9 -0.330776
1.91 -0.344213
1.92 -0.354569
1.93 -0.362237
1.94 -0.367387
1.95 -0.370159
1.96 -0.370516
1.97 -0.368751
1.98 -0.365196
1.99 -0.36005
2 -0.353441
2.01 -0.345543
2.02 -0.336668
2.03 -0.326975
2.04 -0.316591
2.05 -0.305579
2.06 -0.29411
2.07 -0.282243
2.08 -0.270009
2.09 -0.257361
2.1 -0.244319
2.11 -0.230851
2.12 -0.216897
2.13 -0.202329
2.14 -0.187077
2.15 -0.171099
2.16 -0.154322
2.17 -0.136629
2.18 -0.117925
2.19 -0.0982757
2.2 -0.0776788
2.21 -0.0561431
2.22 -0.0336328
2.23 -0.0103719
2.24 0.0135122
2.25 0.0378608
2.26 0.0624932
2.27 0.0871235
2.28 0.111497
2.29 0.135345
2.3 0.15827
2.31 0.179956
2.32 0.200157
2.33 0.218576
2.34 0.234787
2.35 0.248384
2.36 0.259344
2.37 0.267459
2.38 0.272494
2.39 0.273934
2.4 0.272135
2.41 0.267076
2.42 0.258783
2.43 0.246908
2.44 0.231998
2.45 0.214307
2.46 0.194072
2.47 0.17138
2.48 0.146714
2.49 0.120563
2.5 0.0933112
2.51 0.0653436
2.52 0.0371417
2.53 0.00917703
2.54 -0.0181464
2.55 -0.0444069
2.56 -0.0690205
2.57 -0.0918161
2.58 -0.112505
2.59 -0.13084
2.6 -0.146233
2.61 -0.158848
2.62 -0.168648
2.63 -0.175604
2.64 -0.179459
2.65 -0.180447
2.66 -0.178868
2.67 -0.17491
2.68 -0.16868
2.69 -0.160436
2.7 -0.150679
2.71 -0.139729
2.72 -0.127907
2.73 -0.115554
2.74 -0.103111
2.75 -0.0909047
2.76 -0.0792465
2.77 -0.068584
2.78 -0.0590951
2.79 -0.0509817
2.8 -0.0444213
2.81 -0.039739
2.82 -0.0369502
2.83 -0.035996
2.84 -0.036868
2.85 -0.0396256
2.86 -0.0442006
2.87 -0.0502858
2.88 -0.0577076
2.89 -0.0662877
2.9 -0.0758575
2.91 -0.0860241
2.92 -0.096529
2.93 -0.107109
2.94 -0.117436
2.95 -0.127247
2.96 -0.136307
2.97 -0.144391
2.98 -0.151154
2.99 -0.15646
3 -0.160237
3.01 -0.162378
3.02 -0.162694
3.03 -0.161098
3.04 -0.157754
3.05 -0.152697
3.06 -0.145951
3.07 -0.137466
3.08 -0.127584
3.09 -0.116451
3.1 -0.10423
3.11 -0.0909909
3.12 -0.0770667
3.13 -0.0626591
3.14 -0.047958
3.15 -0.0331579
3.16 -0.0184708
3.17 -0.00406295
3.18 0.0099186
3.19 0.0232973
3.2 0.0359293
3.21 0.047785
3.22 0.0588031
3.23 0.0689176
3.24 0.0780197
3.25 0.0862351
3.26 0.0935923
3.27 0.100137
3.28 0.10583
3.29 0.110863
3.3 0.115331
3.31 0.11933
3.32 0.122931
3.33 0.126275
3.34 0.129481
3.35 0.132643
3.36 0.135861
3.37 0.139233
3.38 0.142818
3.39 0.146673
3.4 0.150849
3.41 0.15541
3.42 0.160321
3.43 0.165578
3.44 0.17116
3.45 0.177072
3.46 0.183218
3.47 0.189536
3.48 0.195958
3.49 0.202401
3.5 0.208767
3.51 0.21497
3.52 0.220924
3.53 0.226512
3.54 0.23163
3.55 0.236231
3.56 0.240247
3.57 0.243593
3.58 0.246144
3.59 0.247947
3.6 0.248976
3.61 0.249215
3.62 0.248545
3.63 0.247092
3.64 0.244887
3.65 0.241966
3.66 0.238305
3.67 0.234011
3.68 0.229179
3.69 0.223878
3.7 0.218157
3.71 0.212101
3.72 0.205818
3.73 0.199382
3.74 0.192863
3.75 0.186334
3.76 0.179862
3.77 0.173496
3.78 0.167278
3.79 0.16127
3.8 0.15547
3.81 0.149885
3.82 0.144515
3.83 0.139373
3.84 0.134421
3.85 0.129621
3.86 0.124939
3.87 0.120337
3.88 0.115762
3.89 0.111165
3.9 0.106498
3.91 0.101714
3.92 0.0967524
3.93 0.0915969
3.94 0.0862224
3.95 0.0806122
3.96 0.0747223
3.97 0.0685961
3.98 0.0622536
3.99 0.0557248
4 0.0490409
4.01 0.0422762
4.02 0.0355032
4.03 0.0287976
4.04 0.0222617
4.05 0.0160058
4.06 0.0101111
4.07 0.00467405
4.08 -0.000184845
4.09 -0.0043
4.1 -0.00765612
4.11 -0.0101745
4.12 -0.0117864
4.13 -0.0122762
4.14 -0.0117478
4.15 -0.010181
4.16 -0.00756908
4.17 -0.00380444
4.18 0.000998474
4.19 0.00674392
4.2 0.0133631
4.21 0.0208243
4.22 0.0290073
4.23 0.0377315
4.24 0.0468686
4.25 0.0562868
4.26 0.0658284
4.27 0.0753169
4.28 0.0846059
4.29 0.0935519
4.3 0.10192
4.31 0.109642
4.32 0.116606
4.33 0.122708
4.34 0.127742
4.35 0.131704
4.36 0.13459
4.37 0.136374
4.38 0.13696
4.39 0.136367
4.4 0.134721
4.41 0.132075
4.42 0.128465
4.43 0.123925
4.44 0.118662
4.45 0.112784
4.46 0.106405
4.47 0.0995998
4.48 0.0925628
4.49 0.0854102
4.5 0.0782536
4.51 0.0712222
4.52 0.0644162
4.53 0.057912
4.54 0.0517779
4.55 0.0461061
4.56 0.0409411
4.57 0.0362683
4.58 0.032093
4.59 0.0284252
4.6 0.025272
4.61 0.0225367
4.62 0.0201699
4.63 0.0181135
4.64 0.0163292
4.65 0.0146984
4.66 0.0131469
4.67 0.0115998
4.68 0.00996653
4.69 0.00817289
4.7 0.00615899
4.71 0.00386876
4.72 0.00122403
4.73 -0.00181833
4.74 -0.00525803
4.75 -0.00911041
4.76 -0.0133983
4.77 -0.0181446
4.78 -0.0232826
4.79 -0.028786
4.8 -0.0346217
4.81 -0.0407866
4.82 -0.0471829
4.83 -0.0537599
4.84 -0.0604648
4.85 -0.0672463
4.86 -0.074037
4.87 -0.080784
4.88 -0.0874402
4.89 -0.0939476
4.9 -0.100263
4.91 -0.106365
4.92 -0.11223
4.93 -0.117826
4.94 -0.123119
4.95 -0.128135
4.96 -0.132871
4.97 -0.137331
4.98 -0.141483
4.99 -0.14538
5 -0.149035
5.01 -0.152461
5.02 -0.155646
5.03 -0.158623
5.04 -0.16141
5.05 -0.164014
5.06 -0.166425
5.07 -0.168644
5.08 -0.170683
5.09 -0.172533
5.1 -0.174173
5.11 -0.175573
5.12 -0.176738
5.13 -0.177649
5.14 -0.178282
5.15 -0.17857
5.16 -0.178534
5.17 -0.178155
5.18 -0.177415
5.19 -0.17625
5.2 -0.174685
5.21 -0.172725
5.22 -0.170371
5.23 -0.167594
5.24 -0.164413
5.25 -0.160875
5.26 -0.157002
5.27 -0.152811
5.28 -0.148325
5.29 -0.143617
5.3 -0.138729
5.31 -0.133708
5.32 -0.128595
5.33 -0.12346
5.34 -0.118351
5.35 -0.113317
5.36 -0.108424
5.37 -0.103712
5.38 -0.0992128
5.39 -0.0949623
5.4 -0.0910158
5.41 -0.0873955
5.42 -0.0840966
5.43 -0.0811281
5.44 -0.0785091
5.45 -0.076255
5.46 -0.0743172
5.47 -0.0726787
5.48 -0.0713195
5.49 -0.0702429
5.5 -0.069376
5.51 -0.0686836
5.52 -0.0681283
5.53 -0.0676781
5.54 -0.0672778
5.55 -0.0668849
5.56 -0.0664608
5.57 -0.0659592
5.58 -0.0653412
5.59 -0.0645817
5.6 -0.0636542
5.61 -0.0625258
5.62 -0.0611637
5.63 -0.0595776
5.64 -0.0577609
5.65 -0.0557091
5.66 -0.0533945
5.67 -0.050861
5.68 -0.0481219
5.69 -0.0451947
5.7 -0.0420815
5.71 -0.0388279
5.72 -0.035466
5.73 -0.0320255
5.74 -0.0285359
5.75 -0.0250362
5.76 -0.0215612
5.77 -0.0181422
5.78 -0.0148156
5.79 -0.0116218
5.8 -0.00857655
5.81 -0.00570303
5.82 -0.00302415
5.83 -0.000587322
5.84 0.00162451
5.85 0.0036031
5.86 0.00534413
5.87 0.00681608
5.88 0.00804905
5.89 0.00905818
5.9 0.00985566
5.91 0.0104405
5.92 0.0108405
5.93 0.0110905
5.94 0.0112146
5.95 0.0112345
5.96 0.0111785
5.97 0.0110841
5.98 0.0109787
5.99 0.01089
6 0.0108537
6.01 0.0108901
6.02 0.0110211
6.03 0.0112661
6.04 0.0116615
6.05 0.012208
6.06 0.0129117
6.07 0.0137791
6.08 0.0148291
6.09 0.016056
6.1 0.0174448
6.11 0.0189887
6.12 0.0206856
6.13 0.0225282
6.14 0.024488
6.15 0.0265498
6.16 0.0286992
6.17 0.0309266
6.18 0.0332047
6.19 0.0355183
6.2 0.0378538
6.21 0.0401986
6.22 0.0425399
6.23 0.0448696
6.24 0.0471817
6.25 0.0494706
6.26 0.0517356
6.27 0.0539795
6.28 0.0562056
6.29 0.0584183
6.3 0.060625
6.31 0.0628344
6.32 0.0650544
6.33 0.0672934
6.34 0.0695637
6.35 0.0718688
6.36 0.074214
6.37 0.076603
6.38 0.0790438
6.39 0.0815303
6.4 0.0840581
6.41 0.0866213
6.42 0.0892136
6.43 0.0918212
6.44 0.0944295
6.45 0.0970238
6.46 0.0995851
6.47 0.102091
6.48 0.104528
6.49 0.106877
6.5 0.109121
6.51 0.111226
6.52 0.113194
6.53 0.115013
6.54 0.116676
6.55 0.118151
6.56 0.119457
6.57 0.120598
6.58 0.121576
6.59 0.122386
6.6 0.123046
6.61 0.123577
6.62 0.123995
6.63 0.124312
6.64 0.124545
6.65 0.124721
6.66 0.124859
6.67 0.124973
6.68 0.12508
6.69 0.125195
6.7 0.125325
6.71 0.125477
6.72 0.125655
6.73 0.125854
6.74 0.126066
6.75 0.126282
6.76 0.126482
6.77 0.126647
6.78 0.126757
6.79 0.126786
6.8 0.126703
6.81 0.126472
6.82 0.126077
6.83 0.125493
6.84 0.124692
6.85 0.123622
6.86 0.122298
6.87 0.120706
6.88 0.118837
6.89 0.11665
6.9 0.114182
6.91 0.111446
6.92 0.108456
6.93 0.10521
6.94 0.101747
6.95 0.0981087
6.96 0.0943284
6.97 0.0904371
6.98 0.0864768
6.99 0.0824958
7 0.0785322
7.01 0.0746255
7.02 0.0708267
7.03 0.0671585
7.04 0.0636485
7.05 0.0603196
7.06 0.0572206
7.07 0.0543391
7.08 0.0516768
7.09 0.0492332
7.1 0.0470224
7.11 0.0450193
7.12 0.0431934
7.13 0.0415218
7.14 0.039984
7.15 0.0385472
7.16 0.0371677
7.17 0.0358124
7.18 0.0344472
7.19 0.0330301
7.2 0.0315341
7.21 0.0299325
7.22 0.0282024
7.23 0.0263014
7.24 0.024234
7.25 0.0219951
7.26 0.0195827
7.27 0.0169829
7.28 0.0142152
7.29 0.0113037
7.3 0.00826744
7.31 0.00512433
7.32 0.00190362
7.33 -0.00135674
7.34 -0.00462666
7.35 -0.00787414
7.36 -0.0110584
7.37 -0.0141548
7.38 -0.0171368
7.39 -0.019981
7.4 -0.0226413
7.41 -0.025121
7.42 -0.0274114
7.43 -0.0295059
7.44 -0.0313812
7.45 -0.0330513
7.46 -0.0345344
7.47 -0.0358415
7.48 -0.0369771
7.49 -0.0379584
7.5 -0.0388195
7.51 -0.039581
7.52 -0.0402626
7.53 -0.0408829
7.54 -0.0414712
7.55 -0.0420458
7.56 -0.0426228
7.57 -0.0432199
7.58 -0.0438463
7.59 -0.0445085
7.6 -0.0452099
7.61 -0.0459547
7.62 -0.046737
7.63 -0.047548
7.64 -0.0483791
7.65 -0.0492189
7.66 -0.0500524
7.67 -0.0508655
7.68 -0.0516442
7.69 -0.0523732
7.7 -0.0530316
7.71 -0.0536149
7.72 -0.054114
7.73 -0.0545219
7.74 -0.0548195
7.75 -0.0550184
7.76 -0.0551215
7.77 -0.055133
7.78 -0.0550516
7.79 -0.0548935
7.8 -0.0546749
7.81 -0.054409
7.82 -0.0541092
7.83 -0.0537935
7.84 -0.0534795
7.85 -0.0531822
7.86 -0.0529166
7.87 -0.0527012
7.88 -0.0525414
7.89 -0.0524451
7.9 -0.0524174
7.91 -0.052472
7.92 -0.0525978
7.93 -0.052791
7.94 -0.0530454
7.95 -0.0533576
7.96 -0.053712
7.97 -0.0540937
7.98 -0.0544893
7.99 -0.0548837
8 -0.0552595
8.01 -0.0556032
8.02 -0.0559019
8.03 -0.0561417
8.04 -0.0563047
8.05 -0.0563913
8.06 -0.0563964
8.07 -0.0563173
8.08 -0.0561413
8.09 -0.055884
8.1 -0.0555514
8.11 -0.0551512
8.12 -0.0546877
8.13 -0.0541781
8.14 -0.0536377
8.15 -0.0530798
8.16 -0.0525189
8.17 -0.0519712
8.18 -0.0514494
8.19 -0.0509647
8.2 -0.0505292
8.21 -0.0501571
8.22 -0.0498477
8.23 -0.049604
8.24 -0.0494268
8.25 -0.0493242
8.26 -0.0492815
8.27 -0.0492918
8.28 -0.0493464
8.29 -0.0494378
8.3 -0.0495499
8.31 -0.0496686
8.32 -0.0497808
8.33 -0.0498705
8.34 -0.0499221
8.35 -0.0499254
8.36 -0.0498695
8.37 -0.0497419
8.38 -0.0495266
8.39 -0.0492267
8.4 -0.0488383
8.41 -0.0483596
8.42 -0.0477764
8.43 -0.0471047
8.44 -0.0463487
8.45 -0.0455134
8.46 -0.0445972
8.47 -0.0436139
8.48 -0.0425742
8.49 -0.0414859
8.5 -0.0403544
8.51 -0.039188
8.52 -0.0379967
8.53 -0.0367861
8.54 -0.0355606
8.55 -0.0343232
8.56 -0.033078
8.57 -0.031826
8.58 -0.0305674
8.59 -0.0293002
8.6 -0.0280239
8.61 -0.0267368
8.62 -0.0254366
8.63 -0.0241195
8.64 -0.0227849
8.65 -0.0214326
8.66 -0.0200627
8.67 -0.0186751
8.68 -0.0172727
8.69 -0.0158608
8.7 -0.0144447
8.71 -0.0130312
8.72 -0.0116307
8.73 -0.0102515
8.74 -0.00890376
8.75 -0.00759771
8.76 -0.00635411
8.77 -0.00517646
8.78 -0.00407471
8.79 -0.00305807
8.8 -0.00214651
8.81 -0.00133996
8.82 -0.000638771
8.83 -4.51221e-05
8.84 0.000432626
8.85 0.000797652
8.86 0.00106405
8.87 0.00123955
8.88 0.00133132
8.89 0.00134817
8.9 0.00131365
8.91 0.00124322
8.92 0.00115328
8.93 0.00106314
8.94 0.000992193
8.95 0.000957028
8.96 0.000973337
8.97 0.00106508
8.98 0.00124115
8.99 0.00150881
9 0.00187563
9.01 0.00235522
9.02 0.00294951
9.03 0.00364871
9.04 0.00444861
9.05 0.00534586
9.06 0.00633568
9.07 0.00739508
9.08 0.00851027
9.09 0.00966622
9.1 0.0108481
9.11 0.0120337
9.12 0.0132067
9.13 0.0143514
9.14 0.0154461
9.15 0.0164797
9.16 0.0174431
9.17 0.0183277
9.18 0.0191202
9.19 0.0198172
9.2 0.0204253
9.21 0.0209469
9.22 0.0213839
9.23 0.0217397
9.24 0.0220335
9.25 0.0222769
9.26 0.0224825
9.27 0.0226625
9.28 0.0228362
9.29 0.0230174
9.3 0.0232195
9.31 0.0234601
9.32 0.0237486
9.33 0.0240922
9.34 0.0244975
9.35 0.0249746
9.36 0.0255248
9.37 0.0261419
9.38 0.0268222
9.39 0.0275623
9.4 0.0283562
9.41 0.0291872
9.42 0.0300441
9.43 0.0309142
9.44 0.0317824
9.45 0.0326337
9.46 0.0334552
9.47 0.0342344
9.48 0.0349519
9.49 0.0356015
9.5 0.0361774
9.51 0.0366737
9.52 0.0370795
9.53 0.0373944
9.54 0.0376261
9.55 0.037778
9.56 0.0378529
9.57 0.0378552
9.58 0.0378027
9.59 0.0377063
9.6 0.0375773
9.61 0.0374271
9.62 0.0372724
9.63 0.0371254
9.64 0.0369975
9.65 0.0369041
9.66 0.0368529
9.67 0.03685
9.68 0.0369011
9.69 0.037015
9.7 0.0371924
9.71 0.0374284
9.72 0.0377201
9.73 0.0380651
9.74 0.0384588
9.75 0.0388875
9.76 0.039342
9.77 0.0398123
9.78 0.040287
9.79 0.0407532
9.8 0.0412001
9.81 0.0416174
9.82 0.0419892
9.83 0.0423093
9.84 0.0425717
9.85 0.0427701
9.86 0.0428934
9.87 0.042939
9.88 0.0429102
9.89 0.0428069
9.9 0.0426267
9.91 0.042368
9.92 0.0420424
9.93 0.0416542
9.94 0.0412078
9.95 0.0407018
9.96 0.0401502
9.97 0.0395582
9.98 0.0389311
9.99 0.0382699
10 0.0375824
10.01 0.0368726
10.02 0.0361431
10.03 0.0353941
10.04 0.0346269
10.05 0.0338428
10.06 0.033041
10.07 0.0322194
10.08 0.0313745
10.09 0.0305063
10.1 0.0296126
10.11 0.0286908
10.12 0.027734
10.13 0.0267446
10.14 0.025721
10.15 0.0246622
10.16 0.0235628
10.17 0.0224265
10.18 0.0212551
10.19 0.0200498
10.2 0.0188097
10.21 0.0175381
10.22 0.01624
10.23 0.0149184
10.24 0.0135754
10.25 0.0122139
10.26 0.0108391
10.27 0.00945383
10.28 0.0080607
10.29 0.00666156
10.3 0.00525919
10.31 0.00385491
10.32 0.00244957
10.33 0.00104355
10.34 -0.0003631
10.35 -0.00177072
10.36 -0.00317985
10.37 -0.00459144
10.38 -0.00600617
10.39 -0.00742434
10.4 -0.00884611
10.41 -0.0102714
10.42 -0.0116993
10.43 -0.0131278
10.44 -0.0145548
10.45 -0.0159769
10.46 -0.0173887
10.47 -0.0187861
10.48 -0.0201636
10.49 -0.0215152
10.5 -0.022829
10.51 -0.0241006
10.52 -0.0253237
10.53 -0.0264911
10.54 -0.0275895
10.55 -0.028613
10.56 -0.0295602
10.57 -0.0304264
10.58 -0.031203
10.59 -0.0318829
10.6 -0.0324742
10.61 -0.0329777
10.62 -0.0333941
10.63 -0.0337173
10.64 -0.0339651
10.65 -0.0341441
10.66 -0.0342625
10.67 -0.0343236
10.68 -0.0343447
10.69 -0.0343375
10.7 -0.0343131
10.71 -0.0342828
10.72 -0.0342595
10.73 -0.0342534
10.74 -0.0342735
10.75 -0.0343302
10.76 -0.0344328
10.77 -0.0345824
10.78 -0.0347816
10.79 -0.0350324
10.8 -0.0353398
10.81 -0.0356933
10.82 -0.0360878
10.83 -0.0365166
10.84 -0.036974
10.85 -0.0374458
10.86 -0.0379207
10.87 -0.0383872
10.88 -0.0388303
10.89 -0.0392366
10.9 -0.039596
10.91 -0.0398977
10.92 -0.0401272
10.93 -0.0402713
10.94 -0.0403304
10.95 -0.0402996
10.96 -0.0401743
10.97 -0.0399422
10.98 -0.0396183
10.99 -0.0392064
11 -0.0387125
11.01 -0.0381351
11.02 -0.0374941
11.03 -0.0368024
11.04 -0.0360723
11.05 -0.0353159
11.06 -0.0345505
11.07 -0.0337913
11.08 -0.0330518
11.09 -0.0323476
11.1 -0.0316944
11.11 -0.0310989
11.12 -0.0305696
11.13 -0.0301146
11.14 -0.0297482
11.15 -0.0294617
11.16 -0.0292545
11.17 -0.0291237
11.18 -0.0290732
11.19 -0.0290858
11.2 -0.0291503
11.21 -0.0292553
11.22 -0.0293892
11.23 -0.0295343
11.24 -0.0296742
11.25 -0.0297937
11.26 -0.0298744
11.27 -0.0298972
11.28 -0.0298522
11.29 -0.0297271
11.3 -0.0295089
11.31 -0.0291756
11.32 -0.028734
11.33 -0.0281801
11.34 -0.0275122
11.35 -0.0267156
11.36 -0.0258086
11.37 -0.0247995
11.38 -0.0236971
11.39 -0.0225049
11.4 -0.0212416
11.41 -0.0199263
11.42 -0.0185745
11.43 -0.0172026
11.44 -0.0158303
11.45 -0.0144761
11.46 -0.013156
11.47 -0.0118872
11.48 -0.0106932
11.49 -0.00957894
11.5 -0.00855476
11.51 -0.00762897
11.52 -0.00682317
11.53 -0.00612765
11.54 -0.00554114
11.55 -0.00506169
11.56 -0.004695
11.57 -0.00442801
11.58 -0.00424585
11.59 -0.00413764
11.6 -0.00409415
11.61 -0.00410072
11.62 -0.0041374
11.63 -0.00418964
11.64 -0.00424265
11.65 -0.00427882
11.66 -0.00428577
11.67 -0.00425211
11.68 -0.00416803
11.69 -0.00401622
11.7 -0.00379818
11.71 -0.00351193
11.72 -0.00315693
11.73 -0.00272835
11.74 -0.00223498
11.75 -0.0016875
11.76 -0.00109495
11.77 -0.000466711
11.78 0.000182966
11.79 0.000837399
11.8 0.00148226
11.81 0.00210188
11.82 0.00267524
11.83 0.00319239
11.84 0.0036407
11.85 0.00400895
11.86 0.00427336
11.87 0.00443798
11.88 0.00449959
11.89 0.00445621
11.9 0.00429761
11.91 0.00403375
