[DEFAULT]

version = diffpy.pdfgetx-2.2.1

# input and output specifications
dataformat = twotheta
inputfile = Synthetic_CSH_CSH_pdf_ramp_200_08_normalized.chi
backgroundfiles = quartz_030degC_normalized.chi
outputtype = gr

# PDF calculation setup
mode = xray
wavelength = 0.2113
twothetazero = 0
composition = CaO SiO2
bgscales = 1.0
rpoly = 0.9
qmaxinst = 23.7031
qmin = 0.5
qmax = 20
rmin = 0
rmax = 60
rstep = 0.01

# End of config --------------------------------------------------------------

#### start data
#S 1
#L r(Å)  G(Å$^{-2}$)
0 0
0.01 -0.00190614
0.02 -0.0037532
0.03 -0.00549065
0.04 -0.00707034
0.05 -0.00841817
0.06 -0.00950526
0.07 -0.0103073
0.08 -0.0107985
0.09 -0.0109325
0.1 -0.010699
0.11 -0.0101254
0.12 -0.0092217
0.13 -0.00799516
0.14 -0.00645832
0.15 -0.00468696
0.16 -0.00272829
0.17 -0.000636445
0.18 0.00152936
0.19 0.00368422
0.2 0.00575917
0.21 0.00768425
0.22 0.00935518
0.23 0.0107145
0.24 0.0117115
0.25 0.012294
0.26 0.0123785
0.27 0.0119315
0.28 0.0109749
0.29 0.00950881
0.3 0.00752927
0.31 0.00504216
0.32 0.00215852
0.33 -0.0010522
0.34 -0.00450593
0.35 -0.00810891
0.36 -0.0117129
0.37 -0.0151948
0.38 -0.0184255
0.39 -0.021208
0.4 -0.0234232
0.41 -0.0249588
0.42 -0.0256957
0.43 -0.0254421
0.44 -0.0240978
0.45 -0.0216663
0.46 -0.0181022
0.47 -0.0133334
0.48 -0.0072878
0.49 -0.000140361
0.5 0.00804083
0.51 0.0171647
0.52 0.0272111
0.53 0.0378867
0.54 0.0490196
0.55 0.0604213
0.56 0.0718721
0.57 0.0831227
0.58 0.0939581
0.59 0.104167
0.6 0.113457
0.61 0.121611
0.62 0.128526
0.63 0.134056
0.64 0.138008
0.65 0.140168
0.66 0.140663
0.67 0.139473
0.68 0.136603
0.69 0.13187
0.7 0.125617
0.71 0.117955
0.72 0.10902
0.73 0.0988479
0.74 0.0877417
0.75 0.0759215
0.76 0.0635744
0.77 0.0508736
0.78 0.0380373
0.79 0.0252524
0.8 0.0126678
0.81 0.00043383
0.82 -0.011298
0.83 -0.0224934
0.84 -0.0331027
0.85 -0.0430963
0.86 -0.0523884
0.87 -0.0611013
0.88 -0.0692821
0.89 -0.0769929
0.9 -0.0842671
0.91 -0.0912359
0.92 -0.0979945
0.93 -0.104622
0.94 -0.11119
0.95 -0.117769
0.96 -0.124399
0.97 -0.131102
0.98 -0.137879
0.99 -0.144704
1 -0.151519
1.01 -0.158255
1.02 -0.164821
1.03 -0.171061
1.04 -0.176888
1.05 -0.182185
1.06 -0.186831
1.07 -0.190605
1.08 -0.193468
1.09 -0.195368
1.1 -0.19625
1.11 -0.195994
1.12 -0.194632
1.13 -0.192286
1.14 -0.189037
1.15 -0.184971
1.16 -0.180232
1.17 -0.175092
1.18 -0.16976
1.19 -0.16447
1.2 -0.159542
1.21 -0.155207
1.22 -0.151702
1.23 -0.149251
1.24 -0.148241
1.25 -0.148727
1.26 -0.150785
1.27 -0.15448
1.28 -0.159971
1.29 -0.16715
1.3 -0.175778
1.31 -0.185665
1.32 -0.196598
1.33 -0.208248
1.34 -0.220142
1.35 -0.231871
1.36 -0.242978
1.37 -0.252782
1.38 -0.260918
1.39 -0.266925
1.4 -0.270365
1.41 -0.270388
1.42 -0.266913
1.43 -0.259749
1.44 -0.248695
1.45 -0.233258
1.46 -0.213532
1.47 -0.189887
1.48 -0.162522
1.49 -0.131576
1.5 -0.0973671
1.51 -0.0607622
1.52 -0.022346
1.53 0.0172362
1.54 0.0572187
1.55 0.0967079
1.56 0.134939
1.57 0.171148
1.58 0.204125
1.59 0.233373
1.6 0.258338
1.61 0.278466
1.62 0.292751
1.63 0.300939
1.64 0.30317
1.65 0.299346
1.66 0.289172
1.67 0.272553
1.68 0.25043
1.69 0.223219
1.7 0.191382
1.71 0.155127
1.72 0.1158
1.73 0.0741571
1.74 0.0309892
1.75 -0.0128836
1.76 -0.05647
1.77 -0.0989878
1.78 -0.139716
1.79 -0.177703
1.8 -0.212359
1.81 -0.243393
1.82 -0.270454
1.83 -0.293053
1.84 -0.310853
1.85 -0.324319
1.86 -0.33358
1.87 -0.338809
1.88 -0.339937
1.89 -0.337951
1.9 -0.333343
1.91 -0.326645
1.92 -0.31829
1.93 -0.309103
1.94 -0.299673
1.95 -0.290525
1.96 -0.282252
1.97 -0.275305
1.98 -0.269944
1.99 -0.266395
2 -0.264904
2.01 -0.26558
2.02 -0.268125
2.03 -0.272345
2.04 -0.277977
2.05 -0.284713
2.06 -0.291917
2.07 -0.299085
2.08 -0.305679
2.09 -0.310906
2.1 -0.314267
2.11 -0.315253
2.12 -0.313369
2.13 -0.307805
2.14 -0.298263
2.15 -0.284685
2.16 -0.266905
2.17 -0.2446
2.18 -0.217661
2.19 -0.186697
2.2 -0.151993
2.21 -0.113871
2.22 -0.0725472
2.23 -0.0290542
2.24 0.015971
2.25 0.0618436
2.26 0.107761
2.27 0.152877
2.28 0.196466
2.29 0.23783
2.3 0.275958
2.31 0.310273
2.32 0.34045
2.33 0.366068
2.34 0.386486
2.35 0.401259
2.36 0.410788
2.37 0.415086
2.38 0.414162
2.39 0.407701
2.4 0.396734
2.41 0.38166
2.42 0.362944
2.43 0.340734
2.44 0.316048
2.45 0.289517
2.46 0.26172
2.47 0.23321
2.48 0.204651
2.49 0.176568
2.5 0.149399
2.51 0.123629
2.52 0.0996762
2.53 0.0776285
2.54 0.0576347
2.55 0.0398216
2.56 0.0244331
2.57 0.0110979
2.58 -0.000316165
2.59 -0.00998939
2.6 -0.0179587
2.61 -0.0247038
2.62 -0.030521
2.63 -0.035687
2.64 -0.0404629
2.65 -0.045166
2.66 -0.0500413
2.67 -0.0552832
2.68 -0.0610903
2.69 -0.0676127
2.7 -0.0748526
2.71 -0.0828209
2.72 -0.0914998
2.73 -0.100865
2.74 -0.110699
2.75 -0.120849
2.76 -0.131135
2.77 -0.141324
2.78 -0.151189
2.79 -0.160524
2.8 -0.169128
2.81 -0.1767
2.82 -0.183095
2.83 -0.188237
2.84 -0.192024
2.85 -0.194297
2.86 -0.194987
2.87 -0.19425
2.88 -0.19214
2.89 -0.188717
2.9 -0.183999
2.91 -0.178308
2.92 -0.171816
2.93 -0.164708
2.94 -0.157146
2.95 -0.149405
2.96 -0.14168
2.97 -0.134146
2.98 -0.127017
2.99 -0.120433
3 -0.114479
3.01 -0.109232
3.02 -0.104794
3.03 -0.101202
3.04 -0.0983651
3.05 -0.0962359
3.06 -0.0947588
3.07 -0.0938803
3.08 -0.0934046
3.09 -0.0932066
3.1 -0.0931545
3.11 -0.0930967
3.12 -0.0928852
3.13 -0.0923991
3.14 -0.0915295
3.15 -0.0901221
3.16 -0.0881191
3.17 -0.0854965
3.18 -0.082225
3.19 -0.0782518
3.2 -0.0735793
3.21 -0.0683028
3.22 -0.0624728
3.23 -0.0561399
3.24 -0.0493466
3.25 -0.0422332
3.26 -0.0348785
3.27 -0.0273583
3.28 -0.0197367
3.29 -0.0120915
3.3 -0.0044665
3.31 0.00311021
3.32 0.0106205
3.33 0.0180772
3.34 0.0255106
3.35 0.0329629
3.36 0.0405005
3.37 0.0482087
3.38 0.0561578
3.39 0.0644301
3.4 0.0731235
3.41 0.0823783
3.42 0.0922083
3.43 0.102671
3.44 0.113808
3.45 0.12575
3.46 0.138396
3.47 0.151713
3.48 0.165651
3.49 0.180185
3.5 0.195164
3.51 0.210435
3.52 0.225854
3.53 0.241245
3.54 0.256395
3.55 0.271124
3.56 0.285245
3.57 0.298538
3.58 0.310698
3.59 0.321667
3.6 0.331293
3.61 0.339444
3.62 0.345753
3.63 0.350361
3.64 0.353231
3.65 0.35434
3.66 0.353502
3.67 0.350876
3.68 0.346618
3.69 0.340819
3.7 0.333503
3.71 0.324816
3.72 0.315032
3.73 0.304317
3.74 0.292818
3.75 0.280685
3.76 0.268175
3.77 0.255451
3.78 0.242664
3.79 0.229985
3.8 0.217537
3.81 0.205421
3.82 0.193721
3.83 0.182561
3.84 0.171958
3.85 0.161912
3.86 0.152428
3.87 0.143538
3.88 0.13522
3.89 0.127395
3.9 0.120021
3.91 0.113069
3.92 0.106516
3.93 0.100271
3.94 0.0942928
3.95 0.0885494
3.96 0.083044
3.97 0.0777278
3.98 0.0725949
3.99 0.0676498
4 0.0629323
4.01 0.0584558
4.02 0.0542437
4.03 0.0503341
4.04 0.0467996
4.05 0.0436973
4.06 0.0410427
4.07 0.0388792
4.08 0.0372674
4.09 0.0362955
4.1 0.0359215
4.11 0.0361619
4.12 0.0370238
4.13 0.0386
4.14 0.0407783
4.15 0.043531
4.16 0.0468232
4.17 0.0506635
4.18 0.0549544
4.19 0.0596165
4.2 0.0645871
4.21 0.0698141
4.22 0.0752183
4.23 0.0807153
4.24 0.086242
4.25 0.0917352
4.26 0.097124
4.27 0.102366
4.28 0.10742
4.29 0.112252
4.3 0.116788
4.31 0.121046
4.32 0.12501
4.33 0.12867
4.34 0.131983
4.35 0.134969
4.36 0.137639
4.37 0.139991
4.38 0.141999
4.39 0.143656
4.4 0.144983
4.41 0.145969
4.42 0.146585
4.43 0.146782
4.44 0.14658
4.45 0.145957
4.46 0.144884
4.47 0.143254
4.48 0.141112
4.49 0.138431
4.5 0.135187
4.51 0.131286
4.52 0.126758
4.53 0.12162
4.54 0.115871
4.55 0.109472
4.56 0.102444
4.57 0.0948644
4.58 0.0867698
4.59 0.0781892
4.6 0.0691553
4.61 0.0597855
4.62 0.0501484
4.63 0.0403167
4.64 0.0303596
4.65 0.0203813
4.66 0.010457
4.67 0.000658704
4.68 -0.00891443
4.69 -0.0182096
4.7 -0.0271839
4.71 -0.0357956
4.72 -0.0439787
4.73 -0.0517121
4.74 -0.0590207
4.75 -0.0659087
4.76 -0.0723749
4.77 -0.0784212
4.78 -0.0841307
4.79 -0.0895461
4.8 -0.0947151
4.81 -0.0996687
4.82 -0.104498
4.83 -0.109257
4.84 -0.114
4.85 -0.118783
4.86 -0.123654
4.87 -0.128647
4.88 -0.133788
4.89 -0.139113
4.9 -0.14463
4.91 -0.150324
4.92 -0.156183
4.93 -0.162193
4.94 -0.168328
4.95 -0.174536
4.96 -0.180773
4.97 -0.186994
4.98 -0.193132
4.99 -0.199141
5 -0.204972
5.01 -0.210575
5.02 -0.215869
5.03 -0.220832
5.04 -0.22544
5.05 -0.229666
5.06 -0.233454
5.07 -0.236792
5.08 -0.239704
5.09 -0.242192
5.1 -0.244242
5.11 -0.245838
5.12 -0.247044
5.13 -0.247876
5.14 -0.248351
5.15 -0.248442
5.16 -0.248218
5.17 -0.247695
5.18 -0.246884
5.19 -0.245759
5.2 -0.244349
5.21 -0.24266
5.22 -0.240685
5.23 -0.238385
5.24 -0.235744
5.25 -0.232765
5.26 -0.229423
5.27 -0.225676
5.28 -0.221468
5.29 -0.21682
5.3 -0.211711
5.31 -0.206121
5.32 -0.199964
5.33 -0.19331
5.34 -0.186162
5.35 -0.178529
5.36 -0.170374
5.37 -0.161772
5.38 -0.152777
5.39 -0.143433
5.4 -0.133772
5.41 -0.123871
5.42 -0.113818
5.43 -0.103683
5.44 -0.0935447
5.45 -0.0834965
5.46 -0.0736133
5.47 -0.0639692
5.48 -0.054639
5.49 -0.045753
5.5 -0.037321
5.51 -0.0293952
5.52 -0.0220203
5.53 -0.0153127
5.54 -0.00924327
5.55 -0.00380921
5.56 0.000983281
5.57 0.00508037
5.58 0.00851007
5.59 0.0113387
5.6 0.0135948
5.61 0.0152879
5.62 0.0164366
5.63 0.0171438
5.64 0.017457
5.65 0.017422
5.66 0.0170562
5.67 0.0164578
5.68 0.0156745
5.69 0.0147516
5.7 0.0137239
5.71 0.0126452
5.72 0.0115521
5.73 0.0104741
5.74 0.00944254
5.75 0.00848075
5.76 0.0076011
5.77 0.00681505
5.78 0.00613583
5.79 0.00557366
5.8 0.00511737
5.81 0.00476407
5.82 0.00450959
5.83 0.00435713
5.84 0.00428267
5.85 0.00427491
5.86 0.00432135
5.87 0.00441204
5.88 0.00452627
5.89 0.00464812
5.9 0.00476242
5.91 0.0048503
5.92 0.00489437
5.93 0.00488169
5.94 0.00479822
5.95 0.00462558
5.96 0.00434471
5.97 0.00395491
5.98 0.00344817
5.99 0.00281694
6 0.00204136
6.01 0.00114047
6.02 0.000118557
6.03 -0.00101641
6.04 -0.00226395
6.05 -0.00359373
6.06 -0.00498152
6.07 -0.0064014
6.08 -0.00782015
6.09 -0.0091966
6.1 -0.0104923
6.11 -0.0116658
6.12 -0.0126611
6.13 -0.013413
6.14 -0.0138933
6.15 -0.0140555
6.16 -0.0138477
6.17 -0.013167
6.18 -0.0120286
6.19 -0.0103972
6.2 -0.0082429
6.21 -0.00546444
6.22 -0.00210431
6.23 0.0018325
6.24 0.00634684
6.25 0.0114854
6.26 0.0172107
6.27 0.0234616
6.28 0.0302063
6.29 0.0374294
6.3 0.045096
6.31 0.0531087
6.32 0.0614122
6.33 0.0699509
6.34 0.0786759
6.35 0.0874949
6.36 0.0963469
6.37 0.105173
6.38 0.113896
6.39 0.122465
6.4 0.130834
6.41 0.138959
6.42 0.146767
6.43 0.154231
6.44 0.161339
6.45 0.168069
6.46 0.174378
6.47 0.18023
6.48 0.185658
6.49 0.190652
6.5 0.1952
6.51 0.19924
6.52 0.202833
6.53 0.205974
6.54 0.208658
6.55 0.210814
6.56 0.212489
6.57 0.213682
6.58 0.214382
6.59 0.214528
6.6 0.214121
6.61 0.21318
6.62 0.211691
6.63 0.209608
6.64 0.206896
6.65 0.203605
6.66 0.199731
6.67 0.195265
6.68 0.190147
6.69 0.184472
6.7 0.178262
6.71 0.171544
6.72 0.164292
6.73 0.156612
6.74 0.148563
6.75 0.140201
6.76 0.131567
6.77 0.122751
6.78 0.113837
6.79 0.104895
6.8 0.0960053
6.81 0.0872571
6.82 0.0787133
6.83 0.0704392
6.84 0.0625041
6.85 0.0550164
6.86 0.0479749
6.87 0.0414184
6.88 0.0353781
6.89 0.029956
6.9 0.0251003
6.91 0.0208055
6.92 0.0170685
6.93 0.0139339
6.94 0.0113569
6.95 0.00928323
6.96 0.00768623
6.97 0.00656227
6.98 0.00588815
6.99 0.00558901
7 0.0056335
7.01 0.00599828
7.02 0.00668403
7.03 0.00762511
7.04 0.00880117
7.05 0.0101954
7.06 0.0118222
7.07 0.0136452
7.08 0.0156546
7.09 0.0178464
7.1 0.0202362
7.11 0.0228132
7.12 0.0255644
7.13 0.0284859
7.14 0.0315809
7.15 0.0348417
7.16 0.0382377
7.17 0.0417487
7.18 0.045351
7.19 0.0490146
7.2 0.0526904
7.21 0.0563357
7.22 0.0599032
7.23 0.0633151
7.24 0.0665263
7.25 0.0694823
7.26 0.0721262
7.27 0.0743575
7.28 0.0761325
7.29 0.0774236
7.3 0.0781879
7.31 0.0783501
7.32 0.077861
7.33 0.0767577
7.34 0.0750335
7.35 0.0726753
7.36 0.0696353
7.37 0.0660229
7.38 0.0618743
7.39 0.0572347
7.4 0.0521018
7.41 0.0466031
7.42 0.0408115
7.43 0.0347976
7.44 0.0286259
7.45 0.0223899
7.46 0.0161676
7.47 0.0100266
7.48 0.00404333
7.49 -0.00171041
7.5 -0.00720237
7.51 -0.0123938
7.52 -0.0172449
7.53 -0.021696
7.54 -0.025783
7.55 -0.029506
7.56 -0.0328731
7.57 -0.0358527
7.58 -0.0385175
7.59 -0.0409004
7.6 -0.043034
7.61 -0.0449341
7.62 -0.0466549
7.63 -0.0482424
7.64 -0.0497298
7.65 -0.0511446
7.66 -0.0525163
7.67 -0.0538705
7.68 -0.0552215
7.69 -0.0565784
7.7 -0.0579446
7.71 -0.0593149
7.72 -0.06068
7.73 -0.0620266
7.74 -0.0633295
7.75 -0.0645713
7.76 -0.0657312
7.77 -0.0667879
7.78 -0.0677053
7.79 -0.0684701
7.8 -0.0690745
7.81 -0.0695085
7.82 -0.069754
7.83 -0.0698084
7.84 -0.0696944
7.85 -0.0694241
7.86 -0.0690115
7.87 -0.0684717
7.88 -0.0678494
7.89 -0.0671755
7.9 -0.0664824
7.91 -0.0658117
7.92 -0.0651993
7.93 -0.0646775
7.94 -0.0642765
7.95 -0.0640424
7.96 -0.0639915
7.97 -0.0641324
7.98 -0.064476
7.99 -0.0650421
8 -0.065832
8.01 -0.066819
8.02 -0.0679894
8.03 -0.0693297
8.04 -0.0708271
8.05 -0.0724353
8.06 -0.0741268
8.07 -0.0758734
8.08 -0.0776478
8.09 -0.0794172
8.1 -0.0811588
8.11 -0.0828539
8.12 -0.0844798
8.13 -0.0860306
8.14 -0.0875066
8.15 -0.0889105
8.16 -0.0902466
8.17 -0.0915301
8.18 -0.0927845
8.19 -0.094031
8.2 -0.0952941
8.21 -0.0966061
8.22 -0.0979878
8.23 -0.0994612
8.24 -0.101045
8.25 -0.102774
8.26 -0.10464
8.27 -0.106642
8.28 -0.108774
8.29 -0.111033
8.3 -0.113385
8.31 -0.115793
8.32 -0.118219
8.33 -0.120612
8.34 -0.122909
8.35 -0.125058
8.36 -0.126999
8.37 -0.128661
8.38 -0.129945
8.39 -0.130829
8.4 -0.131261
8.41 -0.131195
8.42 -0.130502
8.43 -0.12923
8.44 -0.127364
8.45 -0.124894
8.46 -0.121755
8.47 -0.118007
8.48 -0.113704
8.49 -0.108885
8.5 -0.103562
8.51 -0.0978018
8.52 -0.0917059
8.53 -0.0853431
8.54 -0.0787813
8.55 -0.072097
8.56 -0.0653854
8.57 -0.0587178
8.58 -0.0521615
8.59 -0.0458148
8.6 -0.0397117
8.61 -0.0338974
8.62 -0.0284093
8.63 -0.0233204
8.64 -0.0186252
8.65 -0.0143167
8.66 -0.0103952
8.67 -0.00688231
8.68 -0.00376217
8.69 -0.000983523
8.7 0.00147743
8.71 0.00363674
8.72 0.00550427
8.73 0.00714098
8.74 0.00857118
8.75 0.00981615
8.76 0.0108687
8.77 0.0117685
8.78 0.0125216
8.79 0.0131291
8.8 0.013568
8.81 0.0138387
8.82 0.0139335
8.83 0.0138355
8.84 0.0135076
8.85 0.0129262
8.86 0.0120904
8.87 0.0109845
8.88 0.00958426
8.89 0.00785862
8.9 0.00584221
8.91 0.00354234
8.92 0.000973677
8.93 -0.00187561
8.94 -0.00493014
8.95 -0.0081492
8.96 -0.0114851
8.97 -0.0148844
8.98 -0.0182727
8.99 -0.0215844
9 -0.0247541
9.01 -0.0276942
9.02 -0.0303286
9.03 -0.032616
9.04 -0.0345028
9.05 -0.0359226
9.06 -0.036795
9.07 -0.0371498
9.08 -0.0369732
9.09 -0.0362617
9.1 -0.034946
9.11 -0.0331352
9.12 -0.0308648
9.13 -0.0281805
9.14 -0.0251007
9.15 -0.0217293
9.16 -0.0181493
9.17 -0.0144344
9.18 -0.0106613
9.19 -0.00692038
9.2 -0.00328671
9.21 0.000172628
9.22 0.00338418
9.23 0.00626552
9.24 0.0088052
9.25 0.0109728
9.26 0.0127474
9.27 0.0140595
9.28 0.0149772
9.29 0.0155172
9.3 0.0157056
9.31 0.015543
9.32 0.015107
9.33 0.014458
9.34 0.0136487
9.35 0.0127296
9.36 0.0117667
9.37 0.0108195
9.38 0.00993629
9.39 0.00916703
9.4 0.0085647
9.41 0.00814321
9.42 0.00792214
9.43 0.00791407
9.44 0.0081541
9.45 0.00860208
9.46 0.00924432
9.47 0.0100612
9.48 0.0110438
9.49 0.0121458
9.5 0.0133319
9.51 0.0145721
9.52 0.0158374
9.53 0.0170972
9.54 0.0183301
9.55 0.0195216
9.56 0.0206615
9.57 0.0217466
9.58 0.0227919
9.59 0.0238137
9.6 0.0248356
9.61 0.0258975
9.62 0.0270353
9.63 0.0282897
9.64 0.0297041
9.65 0.0313541
9.66 0.0332704
9.67 0.0354859
9.68 0.0380362
9.69 0.0409844
9.7 0.0443499
9.71 0.0481158
9.72 0.0522824
9.73 0.056857
9.74 0.0618366
9.75 0.0671423
9.76 0.0727285
9.77 0.0785414
9.78 0.0845295
9.79 0.0905883
9.8 0.0966403
9.81 0.102605
9.82 0.108368
9.83 0.113852
9.84 0.118987
9.85 0.1237
9.86 0.127876
9.87 0.131459
9.88 0.134441
9.89 0.136789
9.9 0.138449
9.91 0.139373
9.92 0.13964
9.93 0.139271
9.94 0.138288
9.95 0.13666
9.96 0.134528
9.97 0.13195
9.98 0.128986
9.99 0.125671
10 0.122112
10.01 0.118385
10.02 0.114552
10.03 0.110673
10.04 0.106811
10.05 0.103011
10.06 0.0993087
10.07 0.0957382
10.08 0.0923276
10.09 0.0890687
10.1 0.0859594
10.11 0.0829911
10.12 0.0801601
10.13 0.0774218
10.14 0.0747477
10.15 0.0721066
10.16 0.0694612
10.17 0.0667743
10.18 0.0640152
10.19 0.0611561
10.2 0.0581601
10.21 0.0550084
10.22 0.0516985
10.23 0.048225
10.24 0.0445809
10.25 0.0407668
10.26 0.0368152
10.27 0.032746
10.28 0.0285826
10.29 0.0243489
10.3 0.0200882
10.31 0.0158322
10.32 0.0116123
10.33 0.00747134
10.34 0.00343337
10.35 -0.000480177
10.36 -0.00425021
10.37 -0.00784681
10.38 -0.0112645
10.39 -0.0145123
10.4 -0.0175936
10.41 -0.0205091
10.42 -0.0232676
10.43 -0.0259035
10.44 -0.0284378
10.45 -0.0308924
10.46 -0.0332874
10.47 -0.0356566
10.48 -0.0380212
10.49 -0.0404004
10.5 -0.042815
10.51 -0.0452739
10.52 -0.0477808
10.53 -0.0503356
10.54 -0.0529351
10.55 -0.0555638
10.56 -0.0582011
10.57 -0.0608243
10.58 -0.0634031
10.59 -0.0658987
10.6 -0.0682841
10.61 -0.0705265
10.62 -0.0725904
10.63 -0.0744139
10.64 -0.0759965
10.65 -0.0773148
10.66 -0.0783505
10.67 -0.0790492
10.68 -0.0794374
10.69 -0.0795236
10.7 -0.0793155
10.71 -0.0788019
10.72 -0.0780169
10.73 -0.077005
10.74 -0.0757975
10.75 -0.0744221
10.76 -0.0729176
10.77 -0.0713384
10.78 -0.0697226
10.79 -0.0681081
10.8 -0.0665387
10.81 -0.0650425
10.82 -0.0636444
10.83 -0.0623638
10.84 -0.0612334
10.85 -0.0602448
10.86 -0.059394
10.87 -0.0586736
10.88 -0.0580804
10.89 -0.0575876
10.9 -0.0571641
10.91 -0.0567828
10.92 -0.0564131
10.93 -0.0560181
10.94 -0.0555673
10.95 -0.0550323
10.96 -0.054385
10.97 -0.0535843
10.98 -0.0526312
10.99 -0.0515155
11 -0.0502331
11.01 -0.0487644
11.02 -0.04714
11.03 -0.04538
11.04 -0.0435067
11.05 -0.041542
11.06 -0.0395275
11.07 -0.0375039
11.08 -0.0355086
11.09 -0.0335867
11.1 -0.0317874
11.11 -0.0301387
11.12 -0.0286729
11.13 -0.0274232
11.14 -0.0264438
11.15 -0.0257196
11.16 -0.0252594
11.17 -0.0250652
11.18 -0.0251673
11.19 -0.0255192
11.2 -0.0260953
11.21 -0.0268697
11.22 -0.0278244
11.23 -0.0289098
11.24 -0.0300773
11.25 -0.0312857
11.26 -0.0324908
11.27 -0.0336424
11.28 -0.0347032
11.29 -0.0356377
11.3 -0.0364107
11.31 -0.0369706
11.32 -0.0373212
11.33 -0.0374494
11.34 -0.0373483
11.35 -0.036985
11.36 -0.0363958
11.37 -0.0355974
11.38 -0.0346075
11.39 -0.0334336
11.4 -0.0321138
11.41 -0.0306862
11.42 -0.0291808
11.43 -0.027627
11.44 -0.0260595
11.45 -0.0245097
11.46 -0.0230029
11.47 -0.021563
11.48 -0.0202205
11.49 -0.0189787
11.5 -0.0178464
11.51 -0.016828
11.52 -0.0159402
11.53 -0.0151636
11.54 -0.0144887
11.55 -0.0139052
11.56 -0.0134077
11.57 -0.0129763
11.58 -0.0125925
11.59 -0.012243
11.6 -0.0119158
11.61 -0.0115989
11.62 -0.0112832
11.63 -0.0109641
11.64 -0.0106402
11.65 -0.0103139
11.66 -0.00999244
11.67 -0.00968533
11.68 -0.00940499
11.69 -0.00917479
11.7 -0.00900865
11.71 -0.00892435
11.72 -0.00894072
11.73 -0.00909091
11.74 -0.00938913
11.75 -0.0098439
11.76 -0.0104679
11.77 -0.0112828
11.78 -0.0123004
11.79 -0.0135043
11.8 -0.0148909
11.81 -0.0164568
11.82 -0.0182046
11.83 -0.0200939
11.84 -0.0221037
11.85 -0.0242098
11.86 -0.0263917
11.87 -0.028607
11.88 -0.0308246
11.89 -0.0330138
11.9 -0.0351343
11.91 -0.0371551
11.92 -0.0390522
11.93 -0.0408007
11.94 -0.0423654
11.95 -0.0437193
11.96 -0.0448641
