[DEFAULT]

version = diffpy.pdfgetx-2.2.1

# input and output specifications
dataformat = twotheta
inputfile = Synthetic_CSH_CSH_pdf_ramp_600_01_normalized.chi
backgroundfiles = quartz_030degC_normalized.chi
outputtype = gr

# PDF calculation setup
mode = xray
wavelength = 0.2113
twothetazero = 0
composition = CaO SiO2
bgscales = 1.0
rpoly = 0.9
qmaxinst = 23.7031
qmin = 0.5
qmax = 20
rmin = 0
rmax = 60
rstep = 0.01

# End of config --------------------------------------------------------------

#### start data
#S 1
#L r(Å)  G(Å$^{-2}$)
0 0
0.01 -0.00215976
0.02 -0.00424089
0.03 -0.00617667
0.04 -0.00790466
0.05 -0.00933048
0.06 -0.0104212
0.07 -0.0111514
0.08 -0.0114959
0.09 -0.0114081
0.1 -0.010889
0.11 -0.00998485
0.12 -0.00872224
0.13 -0.00712786
0.14 -0.00523916
0.15 -0.00315337
0.16 -0.000937844
0.17 0.00133469
0.18 0.00357275
0.19 0.00569331
0.2 0.0076209
0.21 0.00928397
0.22 0.0105695
0.23 0.0114411
0.24 0.0118682
0.25 0.0118196
0.26 0.0112363
0.27 0.0101195
0.28 0.00852467
0.29 0.00648389
0.3 0.00403004
0.31 0.00121288
0.32 -0.00184331
0.33 -0.00504843
0.34 -0.00830288
0.35 -0.0114733
0.36 -0.0144438
0.37 -0.0171006
0.38 -0.0193317
0.39 -0.02095
0.4 -0.0218877
0.41 -0.0220775
0.42 -0.0214448
0.43 -0.0198523
0.44 -0.0172593
0.45 -0.0137163
0.46 -0.00922514
0.47 -0.00376911
0.48 0.00266142
0.49 0.00989125
0.5 0.0178333
0.51 0.0263859
0.52 0.0354825
0.53 0.0448977
0.54 0.0544868
0.55 0.0640984
0.56 0.0735418
0.57 0.0826509
0.58 0.0912809
0.59 0.0992885
0.6 0.106464
0.61 0.112674
0.62 0.117873
0.63 0.121978
0.64 0.124867
0.65 0.126404
0.66 0.126703
0.67 0.125762
0.68 0.12359
0.69 0.120056
0.7 0.115401
0.71 0.109695
0.72 0.10302
0.73 0.0953665
0.74 0.0869283
0.75 0.0778357
0.76 0.0681907
0.77 0.058063
0.78 0.0475731
0.79 0.0368406
0.8 0.0259459
0.81 0.0149593
0.82 0.00395021
0.83 -0.00702465
0.84 -0.0179267
0.85 -0.0287254
0.86 -0.0393794
0.87 -0.049893
0.88 -0.0602588
0.89 -0.0704727
0.9 -0.0805114
0.91 -0.0903857
0.92 -0.100094
0.93 -0.109625
0.94 -0.118943
0.95 -0.128022
0.96 -0.136843
0.97 -0.145365
0.98 -0.153522
0.99 -0.161223
1 -0.168446
1.01 -0.175129
1.02 -0.181199
1.03 -0.186488
1.04 -0.191033
1.05 -0.194781
1.06 -0.197693
1.07 -0.199626
1.08 -0.200654
1.09 -0.200812
1.1 -0.20013
1.11 -0.19859
1.12 -0.196294
1.13 -0.193394
1.14 -0.190003
1.15 -0.186242
1.16 -0.182274
1.17 -0.178296
1.18 -0.174474
1.19 -0.170985
1.2 -0.168089
1.21 -0.165888
1.22 -0.164524
1.23 -0.164119
1.24 -0.164923
1.25 -0.166901
1.26 -0.17005
1.27 -0.174363
1.28 -0.179887
1.29 -0.186485
1.3 -0.193944
1.31 -0.202085
1.32 -0.210706
1.33 -0.219522
1.34 -0.228204
1.35 -0.236446
1.36 -0.243915
1.37 -0.250082
1.38 -0.254746
1.39 -0.257589
1.4 -0.258317
1.41 -0.256308
1.42 -0.251554
1.43 -0.243943
1.44 -0.233346
1.45 -0.219405
1.46 -0.202198
1.47 -0.182003
1.48 -0.158954
1.49 -0.133128
1.5 -0.104719
1.51 -0.0743489
1.52 -0.0424102
1.53 -0.00933543
1.54 0.0243979
1.55 0.0581254
1.56 0.0913133
1.57 0.123421
1.58 0.153624
1.59 0.181507
1.6 0.206628
1.61 0.22854
1.62 0.246469
1.63 0.260125
1.64 0.269494
1.65 0.274389
1.66 0.274444
1.67 0.269402
1.68 0.259815
1.69 0.245827
1.7 0.227597
1.71 0.204959
1.72 0.178877
1.73 0.149767
1.74 0.118085
1.75 0.0841118
1.76 0.0486687
1.77 0.0123313
1.78 -0.0243755
1.79 -0.060875
1.8 -0.0965959
1.81 -0.131107
1.82 -0.164002
1.83 -0.194793
1.84 -0.223022
1.85 -0.248674
1.86 -0.271583
1.87 -0.291592
1.88 -0.308288
1.89 -0.32211
1.9 -0.333137
1.91 -0.341491
1.92 -0.347019
1.93 -0.350236
1.94 -0.351424
1.95 -0.350823
1.96 -0.348554
1.97 -0.344955
1.98 -0.340348
1.99 -0.334944
2 -0.328899
2.01 -0.322375
2.02 -0.315538
2.03 -0.308463
2.04 -0.301183
2.05 -0.293669
2.06 -0.285902
2.07 -0.277805
2.08 -0.269274
2.09 -0.260087
2.1 -0.250145
2.11 -0.239308
2.12 -0.227422
2.13 -0.214206
2.14 -0.199552
2.15 -0.183425
2.16 -0.165746
2.17 -0.14637
2.18 -0.125225
2.19 -0.102514
2.2 -0.07832
2.21 -0.0527471
2.22 -0.0258561
2.23 0.00194555
2.24 0.0303989
2.25 0.059213
2.26 0.0880273
2.27 0.116447
2.28 0.144115
2.29 0.170668
2.3 0.19556
2.31 0.21844
2.32 0.239073
2.33 0.25716
2.34 0.272244
2.35 0.283944
2.36 0.292374
2.37 0.297412
2.38 0.298911
2.39 0.29645
2.4 0.290564
2.41 0.281357
2.42 0.268986
2.43 0.253265
2.44 0.234849
2.45 0.214089
2.46 0.191309
2.47 0.166732
2.48 0.140869
2.49 0.114199
2.5 0.0871072
2.51 0.0599979
2.52 0.0333228
2.53 0.00742399
2.54 -0.0173767
2.55 -0.0407485
2.56 -0.0622063
2.57 -0.0817431
2.58 -0.0991914
2.59 -0.114426
2.6 -0.127027
2.61 -0.137252
2.62 -0.145155
2.63 -0.150788
2.64 -0.154032
2.65 -0.155141
2.66 -0.154402
2.67 -0.152003
2.68 -0.148072
2.69 -0.14284
2.7 -0.136678
2.71 -0.129825
2.72 -0.122516
2.73 -0.115003
2.74 -0.107558
2.75 -0.100392
2.76 -0.0936938
2.77 -0.0877502
2.78 -0.0826402
2.79 -0.0784691
2.8 -0.0753267
2.81 -0.073395
2.82 -0.0726549
2.83 -0.0730462
2.84 -0.0745434
2.85 -0.0771607
2.86 -0.0808351
2.87 -0.0853679
2.88 -0.0906413
2.89 -0.0965337
2.9 -0.102923
2.91 -0.109576
2.92 -0.116329
2.93 -0.123018
2.94 -0.129422
2.95 -0.135391
2.96 -0.140779
2.97 -0.145444
2.98 -0.149155
2.99 -0.15183
3 -0.153422
3.01 -0.153861
3.02 -0.153011
3.03 -0.150806
3.04 -0.147355
3.05 -0.142676
3.06 -0.136773
3.07 -0.129596
3.08 -0.121384
3.09 -0.11223
3.1 -0.102245
3.11 -0.0914642
3.12 -0.0801329
3.13 -0.0683978
3.14 -0.0563999
3.15 -0.0442825
3.16 -0.0322134
3.17 -0.0203274
3.18 -0.00874544
3.19 0.0023872
3.2 0.0129467
3.21 0.0228978
3.22 0.0321821
3.23 0.040738
3.24 0.0484688
3.25 0.0554713
3.26 0.0617667
3.27 0.067393
3.28 0.0723225
3.29 0.0767206
3.3 0.0806775
3.31 0.0842863
3.32 0.0876307
3.33 0.0908465
3.34 0.0940489
3.35 0.0973388
3.36 0.100831
3.37 0.104632
3.38 0.108798
3.39 0.113386
3.4 0.118456
3.41 0.124086
3.42 0.130221
3.43 0.136846
3.44 0.143931
3.45 0.151483
3.46 0.159368
3.47 0.167502
3.48 0.17579
3.49 0.184124
3.5 0.19237
3.51 0.200412
3.52 0.208133
3.53 0.215381
3.54 0.222016
3.55 0.227981
3.56 0.233186
3.57 0.237529
3.58 0.240852
3.59 0.243226
3.6 0.244626
3.61 0.245046
3.62 0.244354
3.63 0.242723
3.64 0.24021
3.65 0.236876
3.66 0.23272
3.67 0.227892
3.68 0.222519
3.69 0.216701
3.7 0.21052
3.71 0.204094
3.72 0.197546
3.73 0.190966
3.74 0.184443
3.75 0.178071
3.76 0.171898
3.77 0.165972
3.78 0.160323
3.79 0.155018
3.8 0.150018
3.81 0.145309
3.82 0.140869
3.83 0.136691
3.84 0.132709
3.85 0.128865
3.86 0.125105
3.87 0.121374
3.88 0.117608
3.89 0.113754
3.9 0.109767
3.91 0.105602
3.92 0.101206
3.93 0.0965841
3.94 0.0917311
3.95 0.0866517
3.96 0.0813345
3.97 0.0758462
3.98 0.0702308
3.99 0.064542
4 0.0588492
4.01 0.0532362
4.02 0.0477808
4.03 0.042564
4.04 0.0377004
4.05 0.033292
4.06 0.0293896
4.07 0.0260674
4.08 0.0234193
4.09 0.0215748
4.1 0.0204979
4.11 0.0202232
4.12 0.020773
4.13 0.0222875
4.14 0.0246302
4.15 0.0277773
4.16 0.0316943
4.17 0.0364123
4.18 0.041807
4.19 0.0477757
4.2 0.0542377
4.21 0.0611282
4.22 0.0683343
4.23 0.0757248
4.24 0.0831982
4.25 0.0906479
4.26 0.0979455
4.27 0.105
4.28 0.111719
4.29 0.118018
4.3 0.123726
4.31 0.128846
4.32 0.133318
4.33 0.137095
4.34 0.140045
4.35 0.142195
4.36 0.143559
4.37 0.144132
4.38 0.143857
4.39 0.142752
4.4 0.140905
4.41 0.138349
4.42 0.1351
4.43 0.131164
4.44 0.126674
4.45 0.121688
4.46 0.116267
4.47 0.110426
4.48 0.104298
4.49 0.0979469
4.5 0.0914392
4.51 0.0848347
4.52 0.0782112
4.53 0.0716292
4.54 0.0651415
4.55 0.058812
4.56 0.0526913
4.57 0.0468027
4.58 0.0411754
4.59 0.0358444
4.6 0.0308505
4.61 0.0261658
4.62 0.02179
4.63 0.0177166
4.64 0.0139741
4.65 0.0104931
4.66 0.00724648
4.67 0.00420183
4.68 0.00133774
4.69 -0.00140681
4.7 -0.00408142
4.71 -0.0067312
4.72 -0.00940754
4.73 -0.0121646
4.74 -0.0150434
4.75 -0.0180845
4.76 -0.0213354
4.77 -0.0248514
4.78 -0.028634
4.79 -0.0327036
4.8 -0.0370751
4.81 -0.0418031
4.82 -0.0468382
4.83 -0.0521715
4.84 -0.0577877
4.85 -0.0636937
4.86 -0.0698337
4.87 -0.0761635
4.88 -0.0826442
4.89 -0.0892383
4.9 -0.0958904
4.91 -0.102546
4.92 -0.109157
4.93 -0.115671
4.94 -0.122025
4.95 -0.128188
4.96 -0.134123
4.97 -0.139793
4.98 -0.145121
4.99 -0.150126
5 -0.154789
5.01 -0.1591
5.02 -0.163003
5.03 -0.166531
5.04 -0.169699
5.05 -0.172514
5.06 -0.174959
5.07 -0.177053
5.08 -0.178837
5.09 -0.180325
5.1 -0.181521
5.11 -0.182424
5.12 -0.183079
5.13 -0.183496
5.14 -0.183683
5.15 -0.183611
5.16 -0.183318
5.17 -0.182803
5.18 -0.182062
5.19 -0.18106
5.2 -0.179807
5.21 -0.178305
5.22 -0.176542
5.23 -0.174486
5.24 -0.172133
5.25 -0.169496
5.26 -0.166574
5.27 -0.163355
5.28 -0.159828
5.29 -0.156037
5.3 -0.151999
5.31 -0.147733
5.32 -0.143242
5.33 -0.138592
5.34 -0.133821
5.35 -0.128968
5.36 -0.124078
5.37 -0.119206
5.38 -0.1144
5.39 -0.109704
5.4 -0.105181
5.41 -0.100877
5.42 -0.0968152
5.43 -0.0930278
5.44 -0.0895552
5.45 -0.0864378
5.46 -0.0836506
5.47 -0.0811947
5.48 -0.0790662
5.49 -0.0772912
5.5 -0.0757968
5.51 -0.074552
5.52 -0.0735199
5.53 -0.0726743
5.54 -0.0719446
5.55 -0.0712762
5.56 -0.0706182
5.57 -0.0699117
5.58 -0.069099
5.59 -0.0681385
5.6 -0.0669894
5.61 -0.0656031
5.62 -0.0639315
5.63 -0.0619807
5.64 -0.0597392
5.65 -0.0572005
5.66 -0.0543316
5.67 -0.0511922
5.68 -0.0478055
5.69 -0.0442018
5.7 -0.0403993
5.71 -0.0364653
5.72 -0.0324517
5.73 -0.0284079
5.74 -0.0243912
5.75 -0.0204612
5.76 -0.0166644
5.77 -0.0130465
5.78 -0.00966267
5.79 -0.0065698
5.8 -0.00377182
5.81 -0.00129086
5.82 0.0008537
5.83 0.00260783
5.84 0.00402291
5.85 0.00510776
5.86 0.00587769
5.87 0.00631863
5.88 0.00649317
5.89 0.00644162
5.9 0.00619958
5.91 0.00579453
5.92 0.00527713
5.93 0.00469628
5.94 0.00409019
5.95 0.00349776
5.96 0.00296089
5.97 0.00250673
5.98 0.00216061
5.99 0.00194573
6 0.00190017
6.01 0.00201508
6.02 0.00229702
6.03 0.00274862
6.04 0.00339105
6.05 0.00420071
6.06 0.00516593
6.07 0.00627767
6.08 0.00753758
6.09 0.00892894
6.1 0.0104325
6.11 0.0120386
6.12 0.0137434
6.13 0.0155433
6.14 0.0174241
6.15 0.0193833
6.16 0.0214214
6.17 0.0235504
6.18 0.0257624
6.19 0.0280619
6.2 0.0304546
6.21 0.0329605
6.22 0.0355753
6.23 0.0383016
6.24 0.0411432
6.25 0.0441141
6.26 0.0472103
6.27 0.0504217
6.28 0.0537429
6.29 0.0571711
6.3 0.0606974
6.31 0.0642973
6.32 0.0679541
6.33 0.0716495
6.34 0.0753617
6.35 0.0790642
6.36 0.0827342
6.37 0.0863493
6.38 0.0898739
6.39 0.0932931
6.4 0.0965899
6.41 0.0997478
6.42 0.102736
6.43 0.105549
6.44 0.108187
6.45 0.110648
6.46 0.11292
6.47 0.114999
6.48 0.116911
6.49 0.118662
6.5 0.120262
6.51 0.121708
6.52 0.123035
6.53 0.124255
6.54 0.125382
6.55 0.12642
6.56 0.12739
6.57 0.128302
6.58 0.129164
6.59 0.129975
6.6 0.130736
6.61 0.13145
6.62 0.132109
6.63 0.132703
6.64 0.133216
6.65 0.133641
6.66 0.133964
6.67 0.134167
6.68 0.134216
6.69 0.134114
6.7 0.133845
6.71 0.133398
6.72 0.132733
6.73 0.131865
6.74 0.130793
6.75 0.129514
6.76 0.128012
6.77 0.126301
6.78 0.124403
6.79 0.12233
6.8 0.120089
6.81 0.117696
6.82 0.115187
6.83 0.112584
6.84 0.109907
6.85 0.107179
6.86 0.10443
6.87 0.101681
6.88 0.0989512
6.89 0.0962667
6.9 0.093639
6.91 0.0910791
6.92 0.0885958
6.93 0.0862036
6.94 0.0839017
6.95 0.0816843
6.96 0.0795481
6.97 0.0774917
6.98 0.075508
6.99 0.0735804
7 0.0716986
7.01 0.0698524
7.02 0.0680319
7.03 0.0662229
7.04 0.0644161
7.05 0.0626039
7.06 0.0607776
7.07 0.0589342
7.08 0.0570719
7.09 0.0551905
7.1 0.0532902
7.11 0.0513759
7.12 0.0494536
7.13 0.0475291
7.14 0.0456098
7.15 0.0437039
7.16 0.0418174
7.17 0.0399559
7.18 0.0381248
7.19 0.0363312
7.2 0.0345717
7.21 0.0328454
7.22 0.0311489
7.23 0.0294797
7.24 0.0278258
7.25 0.026177
7.26 0.024522
7.27 0.0228447
7.28 0.0211303
7.29 0.0193659
7.3 0.0175378
7.31 0.0156274
7.32 0.0136183
7.33 0.0115088
7.34 0.00929188
7.35 0.00696015
7.36 0.00450037
7.37 0.00193055
7.38 -0.00074306
7.39 -0.00351089
7.4 -0.00636979
7.41 -0.00929036
7.42 -0.0122522
7.43 -0.0152338
7.44 -0.0182088
7.45 -0.0211488
7.46 -0.0240293
7.47 -0.0268256
7.48 -0.0295051
7.49 -0.0320381
7.5 -0.0344159
7.51 -0.0366218
7.52 -0.0386367
7.53 -0.0404291
7.54 -0.0420187
7.55 -0.0434044
7.56 -0.0445887
7.57 -0.0455504
7.58 -0.0463276
7.59 -0.0469366
7.6 -0.0473938
7.61 -0.0477053
7.62 -0.0479025
7.63 -0.0480132
7.64 -0.0480586
7.65 -0.0480582
7.66 -0.0480349
7.67 -0.0480101
7.68 -0.0479996
7.69 -0.0480178
7.7 -0.0480805
7.71 -0.0481904
7.72 -0.0483513
7.73 -0.0485641
7.74 -0.0488338
7.75 -0.0491479
7.76 -0.0494988
7.77 -0.0498776
7.78 -0.050275
7.79 -0.050677
7.8 -0.0510717
7.81 -0.0514484
7.82 -0.0517944
7.83 -0.0520988
7.84 -0.0523576
7.85 -0.0525661
7.86 -0.0527198
7.87 -0.0528133
7.88 -0.0528559
7.89 -0.0528518
7.9 -0.0528075
7.91 -0.0527272
7.92 -0.0526261
7.93 -0.0525147
7.94 -0.0524037
7.95 -0.0523061
7.96 -0.0522327
7.97 -0.0521918
7.98 -0.0521907
7.99 -0.0522389
8 -0.0523411
8.01 -0.0524943
8.02 -0.052697
8.03 -0.0529471
8.04 -0.0532412
8.05 -0.0535653
8.06 -0.0539097
8.07 -0.054263
8.08 -0.0546109
8.09 -0.0549397
8.1 -0.055237
8.11 -0.055491
8.12 -0.0556835
8.13 -0.0558077
8.14 -0.0558591
8.15 -0.0558332
8.16 -0.0557217
8.17 -0.0555243
8.18 -0.0552516
8.19 -0.0549098
8.2 -0.0545057
8.21 -0.0540472
8.22 -0.0535545
8.23 -0.0530416
8.24 -0.0525231
8.25 -0.0520178
8.26 -0.0515405
8.27 -0.0511047
8.28 -0.0507224
8.29 -0.0504122
8.3 -0.0501782
8.31 -0.0500218
8.32 -0.0499445
8.33 -0.0499501
8.34 -0.0500331
8.35 -0.0501783
8.36 -0.0503743
8.37 -0.0506077
8.38 -0.0508614
8.39 -0.0511129
8.4 -0.0513432
8.41 -0.0515327
8.42 -0.0516495
8.43 -0.0516823
8.44 -0.0516142
8.45 -0.0514305
8.46 -0.0511026
8.47 -0.0506291
8.48 -0.0500105
8.49 -0.0492446
8.5 -0.0483221
8.51 -0.0472488
8.52 -0.0460461
8.53 -0.0447264
8.54 -0.0433018
8.55 -0.0417858
8.56 -0.0402104
8.57 -0.0385963
8.58 -0.0369649
8.59 -0.0353417
8.6 -0.0337489
8.61 -0.0322056
8.62 -0.0307293
8.63 -0.0293463
8.64 -0.0280645
8.65 -0.026889
8.66 -0.0258256
8.67 -0.0248859
8.68 -0.0240693
8.69 -0.0233622
8.7 -0.0227577
8.71 -0.02225
8.72 -0.0218326
8.73 -0.0214817
8.74 -0.0211836
8.75 -0.0209243
8.76 -0.0206915
8.77 -0.0204668
8.78 -0.0202379
8.79 -0.0199944
8.8 -0.0197236
8.81 -0.0194198
8.82 -0.0190798
8.83 -0.0187016
8.84 -0.0182821
8.85 -0.0178238
8.86 -0.0173339
8.87 -0.0168177
8.88 -0.0162809
8.89 -0.0157308
8.9 -0.0151767
8.91 -0.0146255
8.92 -0.0140832
8.93 -0.013558
8.94 -0.0130515
8.95 -0.0125653
8.96 -0.0120995
8.97 -0.0116537
8.98 -0.0112217
8.99 -0.0107964
9 -0.0103701
9.01 -0.00993185
9.02 -0.00946908
9.03 -0.00897165
9.04 -0.00842824
9.05 -0.0078249
9.06 -0.00714428
9.07 -0.00638454
9.08 -0.00553837
9.09 -0.00460015
9.1 -0.00355165
9.11 -0.00240766
9.12 -0.00117077
9.13 0.000153812
9.14 0.0015669
9.15 0.00304952
9.16 0.00458578
9.17 0.00616101
9.18 0.00775962
9.19 0.00936104
9.2 0.0109464
9.21 0.0124986
9.22 0.0139984
9.23 0.0154235
9.24 0.0167676
9.25 0.01802
9.26 0.0191726
9.27 0.0202041
9.28 0.0211292
9.29 0.0219502
9.3 0.0226722
9.31 0.0232932
9.32 0.0238342
9.33 0.0243121
9.34 0.0247423
9.35 0.0251408
9.36 0.0255288
9.37 0.0259264
9.38 0.0263506
9.39 0.0268204
9.4 0.0273568
9.41 0.0279661
9.42 0.0286576
9.43 0.0294379
9.44 0.030324
9.45 0.0313008
9.46 0.0323638
9.47 0.0335056
9.48 0.0347225
9.49 0.0359928
9.5 0.0372981
9.51 0.038621
9.52 0.0399408
9.53 0.0412347
9.54 0.0424841
9.55 0.043671
9.56 0.0447743
9.57 0.0457707
9.58 0.0466584
9.59 0.0474289
9.6 0.0480761
9.61 0.04858
9.62 0.0489625
9.63 0.0492294
9.64 0.0493903
9.65 0.0494473
9.66 0.0494269
9.67 0.0493498
9.68 0.049235
9.69 0.049103
9.7 0.0489781
9.71 0.048881
9.72 0.0488304
9.73 0.0488467
9.74 0.0489517
9.75 0.0491488
9.76 0.0494455
9.77 0.0498466
9.78 0.050367
9.79 0.050986
9.8 0.0516954
9.81 0.0524832
9.82 0.05334
9.83 0.0542384
9.84 0.0551552
9.85 0.0560675
9.86 0.0569464
9.87 0.0577627
9.88 0.0584945
9.89 0.0591181
9.9 0.0596041
9.91 0.0599198
9.92 0.0600637
9.93 0.0600223
9.94 0.0597837
9.95 0.0593126
9.96 0.0586373
9.97 0.0577602
9.98 0.0566874
9.99 0.0554061
10 0.0539502
10.01 0.0523418
10.02 0.0505998
10.03 0.0487368
10.04 0.0467815
10.05 0.0447643
10.06 0.0427082
10.07 0.0406357
10.08 0.0385723
10.09 0.0365384
10.1 0.0345511
10.11 0.0326262
10.12 0.0307877
10.13 0.029034
10.14 0.0273708
10.15 0.0258005
10.16 0.0243345
10.17 0.0229592
10.18 0.0216653
10.19 0.0204444
10.2 0.0192906
10.21 0.0181879
10.22 0.017119
10.23 0.01607
10.24 0.0150264
10.25 0.0139717
10.26 0.0128927
10.27 0.0117776
10.28 0.0106151
10.29 0.0093879
10.3 0.00809671
10.31 0.0067371
10.32 0.00530666
10.33 0.00379579
10.34 0.00221445
10.35 0.000568866
10.36 -0.00113484
10.37 -0.00289274
10.38 -0.00469228
10.39 -0.00651944
10.4 -0.00836254
10.41 -0.0102087
10.42 -0.0120424
10.43 -0.0138506
10.44 -0.0156207
10.45 -0.0173396
10.46 -0.0189858
10.47 -0.0205566
10.48 -0.0220426
10.49 -0.0234356
10.5 -0.0247145
10.51 -0.0258842
10.52 -0.0269437
10.53 -0.0278909
10.54 -0.0287145
10.55 -0.0294193
10.56 -0.0300154
10.57 -0.0305069
10.58 -0.0308941
10.59 -0.0311804
10.6 -0.031384
10.61 -0.0315137
10.62 -0.0315783
10.63 -0.0315826
10.64 -0.0315463
10.65 -0.0314801
10.66 -0.0313951
10.67 -0.0313022
10.68 -0.0312141
10.69 -0.0311407
10.7 -0.031091
10.71 -0.0310769
10.72 -0.0311055
10.73 -0.03118
10.74 -0.0313048
10.75 -0.0314856
10.76 -0.0317263
10.77 -0.0320207
10.78 -0.0323664
10.79 -0.0327607
10.8 -0.0332025
10.81 -0.0336785
10.82 -0.0341806
10.83 -0.0346999
10.84 -0.0352262
10.85 -0.0357469
10.86 -0.036251
10.87 -0.036728
10.88 -0.0371627
10.89 -0.037545
10.9 -0.0378684
10.91 -0.0381255
10.92 -0.0383052
10.93 -0.038399
10.94 -0.0384117
10.95 -0.0383428
10.96 -0.0381919
10.97 -0.0379537
10.98 -0.0376451
10.99 -0.0372733
11 -0.0368475
11.01 -0.0363734
11.02 -0.0358696
11.03 -0.0353495
11.04 -0.0348264
11.05 -0.0343157
11.06 -0.0338323
11.07 -0.0333876
11.08 -0.0329928
11.09 -0.0326618
11.1 -0.0324065
11.11 -0.0322264
11.12 -0.0321249
11.13 -0.0321046
11.14 -0.0321729
11.15 -0.0323142
11.16 -0.0325216
11.17 -0.0327861
11.18 -0.0331011
11.19 -0.0334461
11.2 -0.0338055
11.21 -0.0341634
11.22 -0.0344999
11.23 -0.034796
11.24 -0.0350368
11.25 -0.0352066
11.26 -0.0352849
11.27 -0.0352531
11.28 -0.0351096
11.29 -0.0348463
11.3 -0.034455
11.31 -0.0339177
11.32 -0.0332527
11.33 -0.0324636
11.34 -0.0315566
11.35 -0.0305265
11.36 -0.0294001
11.37 -0.0281932
11.38 -0.0269214
11.39 -0.0255983
11.4 -0.0242473
11.41 -0.0228891
11.42 -0.0215418
11.43 -0.0202259
11.44 -0.0189626
11.45 -0.0177635
11.46 -0.0166415
11.47 -0.0156099
11.48 -0.0146891
11.49 -0.0138723
11.5 -0.013162
11.51 -0.0125586
11.52 -0.0120741
11.53 -0.0116894
11.54 -0.0113954
11.55 -0.0111828
11.56 -0.0110468
11.57 -0.0109697
11.58 -0.0109347
11.59 -0.0109285
11.6 -0.010938
11.61 -0.0109483
11.62 -0.0109464
11.63 -0.010922
11.64 -0.0108652
11.65 -0.0107636
11.66 -0.0106171
11.67 -0.010423
11.68 -0.0101807
11.69 -0.00988516
11.7 -0.00954658
11.71 -0.00917125
11.72 -0.00876623
11.73 -0.00833858
11.74 -0.00790046
11.75 -0.00746306
11.76 -0.00703671
11.77 -0.00663379
11.78 -0.00626687
11.79 -0.00594259
11.8 -0.00566879
11.81 -0.00545367
11.82 -0.00530957
11.83 -0.00523153
11.84 -0.00522068
11.85 -0.0052764
11.86 -0.00540515
11.87 -0.00559336
11.88 -0.00583406
11.89 -0.00611975
11.9 -0.00644465
11.91 -0.0067954
