[DEFAULT]

version = diffpy.pdfgetx-2.2.1

# input and output specifications
dataformat = twotheta
inputfile = Synthetic_CSH_CSH_pdf_ramp_200_09_normalized.chi
backgroundfiles = quartz_030degC_normalized.chi
outputtype = gr

# PDF calculation setup
mode = xray
wavelength = 0.2113
twothetazero = 0
composition = CaO SiO2
bgscales = 1.0
rpoly = 0.9
qmaxinst = 23.7031
qmin = 0.5
qmax = 20
rmin = 0
rmax = 60
rstep = 0.01

# End of config --------------------------------------------------------------

#### start data
#S 1
#L r(Å)  G(Å$^{-2}$)
0 0
0.01 -0.00201922
0.02 -0.00397357
0.03 -0.00580768
0.04 -0.00746898
0.05 -0.00887697
0.06 -0.010001
0.07 -0.0108158
0.08 -0.0112947
0.09 -0.0113899
0.1 -0.0110929
0.11 -0.0104357
0.12 -0.0094318
0.13 -0.00809262
0.14 -0.00643587
0.15 -0.00454401
0.16 -0.00246971
0.17 -0.000272436
0.18 0.00198051
0.19 0.00420186
0.2 0.00631927
0.21 0.00826034
0.22 0.00991602
0.23 0.0112313
0.24 0.012158
0.25 0.0126464
0.26 0.0126157
0.27 0.0120383
0.28 0.0109434
0.29 0.00933767
0.3 0.00722426
0.31 0.00461802
0.32 0.00163563
0.33 -0.00164752
0.34 -0.00514219
0.35 -0.00874462
0.36 -0.0123094
0.37 -0.0157128
0.38 -0.0188262
0.39 -0.0214514
0.4 -0.0234773
0.41 -0.0247991
0.42 -0.0253053
0.43 -0.0248132
0.44 -0.0232344
0.45 -0.0205835
0.46 -0.0168259
0.47 -0.0119022
0.48 -0.00575568
0.49 0.00143443
0.5 0.00959245
0.51 0.018621
0.52 0.0284844
0.53 0.0388994
0.54 0.0496956
0.55 0.0606883
0.56 0.0716568
0.57 0.0823683
0.58 0.0926216
0.59 0.102219
0.6 0.110883
0.61 0.118416
0.62 0.124733
0.63 0.129707
0.64 0.133163
0.65 0.134912
0.66 0.135088
0.67 0.133684
0.68 0.130715
0.69 0.126025
0.7 0.11994
0.71 0.112574
0.72 0.104057
0.73 0.0944332
0.74 0.0839829
0.75 0.0729082
0.76 0.0613803
0.77 0.0495566
0.78 0.0376302
0.79 0.0257627
0.8 0.0140807
0.81 0.00270987
0.82 -0.00822707
0.83 -0.0187104
0.84 -0.0287077
0.85 -0.038205
0.86 -0.0471479
0.87 -0.0556478
0.88 -0.0637554
0.89 -0.0715327
0.9 -0.0790254
0.91 -0.0863422
0.92 -0.0935616
0.93 -0.100748
0.94 -0.107959
0.95 -0.115241
0.96 -0.122606
0.97 -0.130052
0.98 -0.137557
0.99 -0.145066
1 -0.152502
1.01 -0.159778
1.02 -0.166785
1.03 -0.173337
1.04 -0.179353
1.05 -0.18471
1.06 -0.189289
1.07 -0.192853
1.08 -0.195385
1.09 -0.196848
1.1 -0.197201
1.11 -0.196336
1.12 -0.194309
1.13 -0.191269
1.14 -0.187319
1.15 -0.18257
1.16 -0.177193
1.17 -0.171477
1.18 -0.165651
1.19 -0.159964
1.2 -0.154768
1.21 -0.150284
1.22 -0.146756
1.23 -0.144407
1.24 -0.143636
1.25 -0.144478
1.26 -0.146993
1.27 -0.151231
1.28 -0.157336
1.29 -0.165178
1.3 -0.174488
1.31 -0.185054
1.32 -0.19664
1.33 -0.208884
1.34 -0.221298
1.35 -0.233451
1.36 -0.244871
1.37 -0.254842
1.38 -0.263009
1.39 -0.268904
1.4 -0.272088
1.41 -0.271695
1.42 -0.267666
1.43 -0.259826
1.44 -0.247987
1.45 -0.231667
1.46 -0.210984
1.47 -0.186337
1.48 -0.157948
1.49 -0.125978
1.5 -0.0907767
1.51 -0.0532302
1.52 -0.0139439
1.53 0.0264172
1.54 0.0670558
1.55 0.10708
1.56 0.145717
1.57 0.182197
1.58 0.21529
1.59 0.244518
1.6 0.269334
1.61 0.289194
1.62 0.303097
1.63 0.310805
1.64 0.312482
1.65 0.308048
1.66 0.297224
1.67 0.279934
1.68 0.257139
1.69 0.229273
1.7 0.19681
1.71 0.15998
1.72 0.120131
1.73 0.0780277
1.74 0.0344648
1.75 -0.00972646
1.76 -0.0535636
1.77 -0.0962699
1.78 -0.13713
1.79 -0.175196
1.8 -0.20989
1.81 -0.240935
1.82 -0.267989
1.83 -0.290575
1.84 -0.308366
1.85 -0.321838
1.86 -0.331128
1.87 -0.336415
1.88 -0.337638
1.89 -0.335783
1.9 -0.33134
1.91 -0.324841
1.92 -0.316716
1.93 -0.307782
1.94 -0.298617
1.95 -0.289737
1.96 -0.281727
1.97 -0.275023
1.98 -0.269877
1.99 -0.266504
2 -0.26514
2.01 -0.265883
2.02 -0.268434
2.03 -0.272595
2.04 -0.278103
2.05 -0.284642
2.06 -0.29159
2.07 -0.298449
2.08 -0.30469
2.09 -0.309529
2.1 -0.312482
2.11 -0.313057
2.12 -0.310773
2.13 -0.304839
2.14 -0.294974
2.15 -0.281134
2.16 -0.263164
2.17 -0.24076
2.18 -0.213828
2.19 -0.182977
2.2 -0.148494
2.21 -0.110707
2.22 -0.0698448
2.23 -0.0269181
2.24 0.0174427
2.25 0.0625626
2.26 0.107642
2.27 0.151861
2.28 0.194512
2.29 0.234915
2.3 0.272076
2.31 0.305444
2.32 0.334708
2.33 0.359467
2.34 0.379101
2.35 0.393184
2.36 0.402121
2.37 0.405935
2.38 0.404645
2.39 0.397953
2.4 0.386874
2.41 0.371806
2.42 0.353208
2.43 0.331235
2.44 0.306879
2.45 0.280761
2.46 0.253443
2.47 0.225472
2.48 0.197489
2.49 0.170003
2.5 0.143438
2.51 0.118264
2.52 0.0948849
2.53 0.0733781
2.54 0.0538843
2.55 0.0365226
2.56 0.0215257
2.57 0.00852743
2.58 -0.0026045
2.59 -0.0120482
2.6 -0.0198433
2.61 -0.0264568
2.62 -0.0321775
2.63 -0.0372744
2.64 -0.0420013
2.65 -0.0466648
2.66 -0.0515006
2.67 -0.0566953
2.68 -0.0624396
2.69 -0.0688758
2.7 -0.0760039
2.71 -0.083832
2.72 -0.0923406
2.73 -0.101503
2.74 -0.111108
2.75 -0.121007
2.76 -0.131026
2.77 -0.140936
2.78 -0.150521
2.79 -0.159583
2.8 -0.167929
2.81 -0.175268
2.82 -0.181465
2.83 -0.186446
2.84 -0.190119
2.85 -0.192329
2.86 -0.193014
2.87 -0.192324
2.88 -0.190314
2.89 -0.187043
2.9 -0.182529
2.91 -0.177081
2.92 -0.170863
2.93 -0.164053
2.94 -0.156803
2.95 -0.149376
2.96 -0.141954
2.97 -0.134706
2.98 -0.127829
2.99 -0.121456
3 -0.115665
3.01 -0.110527
3.02 -0.106134
3.03 -0.102519
3.04 -0.0995947
3.05 -0.0973161
3.06 -0.0956282
3.07 -0.0944773
3.08 -0.0936823
3.09 -0.0931262
3.1 -0.0926866
3.11 -0.0922207
3.12 -0.0915956
3.13 -0.0907019
3.14 -0.0894418
3.15 -0.0876761
3.16 -0.0853569
3.17 -0.0824674
3.18 -0.0789861
3.19 -0.0748704
3.2 -0.0701295
3.21 -0.0648548
3.22 -0.059097
3.23 -0.0529069
3.24 -0.0463298
3.25 -0.0394916
3.26 -0.0324643
3.27 -0.0253156
3.28 -0.0181048
3.29 -0.0108936
3.3 -0.00371561
3.31 0.00341111
3.32 0.0104799
3.33 0.017514
3.34 0.0245511
3.35 0.0316402
3.36 0.0388565
3.37 0.0462908
3.38 0.0540119
3.39 0.0621026
3.4 0.0706609
3.41 0.079828
3.42 0.0896075
3.43 0.100051
3.44 0.111194
3.45 0.12316
3.46 0.135838
3.47 0.149184
3.48 0.163142
3.49 0.177676
3.5 0.192626
3.51 0.207834
3.52 0.223152
3.53 0.238395
3.54 0.253348
3.55 0.267834
3.56 0.281664
3.57 0.294623
3.58 0.306405
3.59 0.316963
3.6 0.326152
3.61 0.333847
3.62 0.33969
3.63 0.343834
3.64 0.34625
3.65 0.346927
3.66 0.345688
3.67 0.342706
3.68 0.338138
3.69 0.332084
3.7 0.324578
3.71 0.315773
3.72 0.305939
3.73 0.295241
3.74 0.283833
3.75 0.271864
3.76 0.259582
3.77 0.247143
3.78 0.234694
3.79 0.222404
3.8 0.210383
3.81 0.198722
3.82 0.187497
3.83 0.176825
3.84 0.166711
3.85 0.157149
3.86 0.148136
3.87 0.139697
3.88 0.131805
3.89 0.124375
3.9 0.117366
3.91 0.110743
3.92 0.104482
3.93 0.0984955
3.94 0.0927453
3.95 0.0872008
3.96 0.0818658
3.97 0.0766998
3.98 0.0717016
3.99 0.0668806
4 0.0622812
4.01 0.0579228
4.02 0.0538334
4.03 0.0500551
4.04 0.0466649
4.05 0.043723
4.06 0.0412457
4.07 0.039277
4.08 0.0378779
4.09 0.0371367
4.1 0.0370071
4.11 0.0375025
4.12 0.0386263
4.13 0.0404665
4.14 0.0429047
4.15 0.045908
4.16 0.0494355
4.17 0.053487
4.18 0.0579599
4.19 0.0627702
4.2 0.0678501
4.21 0.0731394
4.22 0.0785541
4.23 0.0840105
4.24 0.0894434
4.25 0.0947864
4.26 0.0999639
4.27 0.104942
4.28 0.10968
4.29 0.114147
4.3 0.118269
4.31 0.122074
4.32 0.125553
4.33 0.128702
4.34 0.131483
4.35 0.133925
4.36 0.13605
4.37 0.137862
4.38 0.139344
4.39 0.140499
4.4 0.141353
4.41 0.141902
4.42 0.142125
4.43 0.141984
4.44 0.141498
4.45 0.140647
4.46 0.139408
4.47 0.137684
4.48 0.135512
4.49 0.132864
4.5 0.129716
4.51 0.12598
4.52 0.121677
4.53 0.116819
4.54 0.111399
4.55 0.105378
4.56 0.0987703
4.57 0.0916433
4.58 0.084028
4.59 0.0759474
4.6 0.0674275
4.61 0.0585772
4.62 0.0494588
4.63 0.0401388
4.64 0.0306776
4.65 0.0211754
4.66 0.0117025
4.67 0.00232693
4.68 -0.00686061
4.69 -0.0158079
4.7 -0.024473
4.71 -0.0328158
4.72 -0.0407745
4.73 -0.048328
4.74 -0.0554969
4.75 -0.0622845
4.76 -0.0686886
4.77 -0.0747111
4.78 -0.0804272
4.79 -0.0858762
4.8 -0.0911019
4.81 -0.0961334
4.82 -0.101054
4.83 -0.105913
4.84 -0.11076
4.85 -0.115646
4.86 -0.120616
4.87 -0.125697
4.88 -0.130915
4.89 -0.136298
4.9 -0.141852
4.91 -0.147561
4.92 -0.153413
4.93 -0.15939
4.94 -0.165464
4.95 -0.171587
4.96 -0.177716
4.97 -0.183806
4.98 -0.189789
4.99 -0.195624
5 -0.201266
5.01 -0.206669
5.02 -0.211752
5.03 -0.216498
5.04 -0.220888
5.05 -0.224898
5.06 -0.228475
5.07 -0.231612
5.08 -0.234335
5.09 -0.236649
5.1 -0.238542
5.11 -0.240004
5.12 -0.241097
5.13 -0.24184
5.14 -0.242249
5.15 -0.242301
5.16 -0.242064
5.17 -0.241551
5.18 -0.240774
5.19 -0.239707
5.2 -0.238377
5.21 -0.236789
5.22 -0.234932
5.23 -0.232768
5.24 -0.230279
5.25 -0.227465
5.26 -0.224299
5.27 -0.220739
5.28 -0.216727
5.29 -0.212282
5.3 -0.207383
5.31 -0.202007
5.32 -0.196071
5.33 -0.189643
5.34 -0.182725
5.35 -0.175327
5.36 -0.167411
5.37 -0.159054
5.38 -0.150309
5.39 -0.141221
5.4 -0.131822
5.41 -0.12219
5.42 -0.112411
5.43 -0.102557
5.44 -0.0927055
5.45 -0.0829496
5.46 -0.0733627
5.47 -0.0640181
5.48 -0.0549891
5.49 -0.0464042
5.5 -0.0382711
5.51 -0.0306401
5.52 -0.0235534
5.53 -0.0171236
5.54 -0.0113195
5.55 -0.00613598
5.56 -0.00157673
5.57 0.00230899
5.58 0.00555164
5.59 0.00821827
5.6 0.0103394
5.61 0.0119277
5.62 0.0130051
5.63 0.0136719
5.64 0.0139763
5.65 0.0139643
5.66 0.0136569
5.67 0.0131467
5.68 0.0124797
5.69 0.0116993
5.7 0.0108409
5.71 0.00995247
5.72 0.00906679
5.73 0.00821012
5.74 0.00741069
5.75 0.00668716
5.76 0.00604742
5.77 0.00549919
5.78 0.00505146
5.79 0.00470981
5.8 0.0044605
5.81 0.00429778
5.82 0.00421459
5.83 0.00420884
5.84 0.00425781
5.85 0.0043491
5.86 0.00446962
5.87 0.00460601
5.88 0.00474079
5.89 0.00485974
5.9 0.00494919
5.91 0.00499053
5.92 0.0049697
5.93 0.00487776
5.94 0.00470365
5.95 0.00443189
5.96 0.00404705
5.97 0.0035526
5.98 0.00294381
5.99 0.00221648
6 0.00135545
6.01 0.000381518
6.02 -0.000698553
6.03 -0.00187468
6.04 -0.00314191
6.05 -0.00447054
6.06 -0.00583602
6.07 -0.00721211
6.08 -0.00856372
6.09 -0.00985104
6.1 -0.0110382
6.11 -0.012085
6.12 -0.0129368
6.13 -0.0135304
6.14 -0.0138417
6.15 -0.0138269
6.16 -0.0134371
6.17 -0.0125729
6.18 -0.0112531
6.19 -0.00944592
6.2 -0.00712438
6.21 -0.0041924
6.22 -0.000694555
6.23 0.00336172
6.24 0.00797473
6.25 0.0131864
6.26 0.0189575
6.27 0.025227
6.28 0.0319615
6.29 0.0391428
6.3 0.0467339
6.31 0.0546402
6.32 0.0628063
6.33 0.0711766
6.34 0.0796994
6.35 0.0882878
6.36 0.0968823
6.37 0.105425
6.38 0.11384
6.39 0.12208
6.4 0.130102
6.41 0.137866
6.42 0.145302
6.43 0.152384
6.44 0.159108
6.45 0.165454
6.46 0.171384
6.47 0.176867
6.48 0.181938
6.49 0.186592
6.5 0.19082
6.51 0.19457
6.52 0.197901
6.53 0.200811
6.54 0.203299
6.55 0.205302
6.56 0.206864
6.57 0.207986
6.58 0.208659
6.59 0.208823
6.6 0.208481
6.61 0.207647
6.62 0.206306
6.63 0.204413
6.64 0.20193
6.65 0.198901
6.66 0.195319
6.67 0.191171
6.68 0.186393
6.69 0.181074
6.7 0.17523
6.71 0.168883
6.72 0.162002
6.73 0.154686
6.74 0.146991
6.75 0.138967
6.76 0.130651
6.77 0.122129
6.78 0.113481
6.79 0.104778
6.8 0.0960957
6.81 0.0875216
6.82 0.0791218
6.83 0.0709623
6.84 0.0631135
6.85 0.0556836
6.86 0.0486779
6.87 0.0421386
6.88 0.0361008
6.89 0.0306694
6.9 0.0257987
6.91 0.0214875
6.92 0.0177368
6.93 0.0145959
6.94 0.0120237
6.95 0.00996839
6.96 0.0084053
6.97 0.00733348
6.98 0.0067311
6.99 0.00652132
7 0.00667169
7.01 0.00715727
7.02 0.00797688
7.03 0.00905935
7.04 0.0103801
7.05 0.0119177
7.06 0.0136798
7.07 0.0156245
7.08 0.0177367
7.09 0.020007
7.1 0.0224422
7.11 0.0250272
7.12 0.0277468
7.13 0.0305934
7.14 0.0335647
7.15 0.0366497
7.16 0.0398219
7.17 0.0430618
7.18 0.0463467
7.19 0.0496452
7.2 0.052919
7.21 0.0561305
7.22 0.0592388
7.23 0.0621715
7.24 0.0648948
7.25 0.0673628
7.26 0.0695272
7.27 0.0712987
7.28 0.0726429
7.29 0.0735393
7.3 0.0739526
7.31 0.073818
7.32 0.0730951
7.33 0.0718207
7.34 0.0699913
7.35 0.0675983
7.36 0.064602
7.37 0.0611017
7.38 0.0571317
7.39 0.0527336
7.4 0.0479084
7.41 0.0427692
7.42 0.037381
7.43 0.0318067
7.44 0.0261047
7.45 0.0203566
7.46 0.0146302
7.47 0.00898399
7.48 0.00348464
7.49 -0.00180641
7.5 -0.0068632
7.51 -0.0116536
7.52 -0.0161448
7.53 -0.020287
7.54 -0.0241137
7.55 -0.0276271
7.56 -0.030836
7.57 -0.0337157
7.58 -0.03633
7.59 -0.0387082
7.6 -0.0408789
7.61 -0.0428567
7.62 -0.0446873
7.63 -0.0464087
7.64 -0.0480479
7.65 -0.049626
7.66 -0.0511653
7.67 -0.0526841
7.68 -0.0541913
7.69 -0.05569
7.7 -0.0571769
7.71 -0.0586452
7.72 -0.0600832
7.73 -0.0614757
7.74 -0.0627928
7.75 -0.0640215
7.76 -0.0651424
7.77 -0.0661364
7.78 -0.0669686
7.79 -0.067631
7.8 -0.068121
7.81 -0.068433
7.82 -0.0685538
7.83 -0.0684865
7.84 -0.0682584
7.85 -0.0678861
7.86 -0.0673878
7.87 -0.0667845
7.88 -0.0661215
7.89 -0.0654312
7.9 -0.0647473
7.91 -0.0641155
7.92 -0.0635672
7.93 -0.0631331
7.94 -0.0628409
7.95 -0.0627355
7.96 -0.0628277
7.97 -0.0631212
7.98 -0.0636222
7.99 -0.0643453
8 -0.0652859
8.01 -0.0664123
8.02 -0.0677063
8.03 -0.069149
8.04 -0.0707206
8.05 -0.0723741
8.06 -0.0740794
8.07 -0.0758062
8.08 -0.0775202
8.09 -0.0791933
8.1 -0.0808036
8.11 -0.0823332
8.12 -0.0837582
8.13 -0.0850778
8.14 -0.0862972
8.15 -0.087423
8.16 -0.0884627
8.17 -0.0894371
8.18 -0.0903758
8.19 -0.091305
8.2 -0.0922543
8.21 -0.0932622
8.22 -0.0943535
8.23 -0.0955539
8.24 -0.0968858
8.25 -0.0983917
8.26 -0.100061
8.27 -0.101896
8.28 -0.10389
8.29 -0.106046
8.3 -0.108326
8.31 -0.110692
8.32 -0.113103
8.33 -0.115509
8.34 -0.117844
8.35 -0.120051
8.36 -0.122067
8.37 -0.12382
8.38 -0.125206
8.39 -0.1262
8.4 -0.126747
8.41 -0.126797
8.42 -0.126219
8.43 -0.12506
8.44 -0.123302
8.45 -0.120936
8.46 -0.117894
8.47 -0.114237
8.48 -0.110021
8.49 -0.105283
8.5 -0.100041
8.51 -0.0943601
8.52 -0.0883463
8.53 -0.0820703
8.54 -0.0756031
8.55 -0.0690253
8.56 -0.0624338
8.57 -0.0559024
8.58 -0.0495007
8.59 -0.0433329
8.6 -0.0374313
8.61 -0.0318423
8.62 -0.026604
8.63 -0.0217924
8.64 -0.0173992
8.65 -0.0134153
8.66 -0.00983901
8.67 -0.00669054
8.68 -0.00395025
8.69 -0.00156164
8.7 0.000503403
8.71 0.0022658
8.72 0.00374174
8.73 0.00499754
8.74 0.00606296
8.75 0.00696478
8.76 0.00770633
8.77 0.00832861
8.78 0.00884261
8.79 0.00925355
8.8 0.00954807
8.81 0.00972658
8.82 0.00978147
8.83 0.00969722
8.84 0.00944145
8.85 0.00899011
8.86 0.00833638
8.87 0.00746189
8.88 0.00634105
8.89 0.00494102
8.9 0.00328592
8.91 0.0013773
8.92 -0.000776441
8.93 -0.0031923
8.94 -0.00580555
8.95 -0.00858274
8.96 -0.0114835
8.97 -0.014464
8.98 -0.0174568
8.99 -0.020402
9 -0.0232401
9.01 -0.0258921
9.02 -0.0282871
9.03 -0.0303838
9.04 -0.032131
9.05 -0.0334657
9.06 -0.034312
9.07 -0.0346923
9.08 -0.0345911
9.09 -0.0340023
9.1 -0.0328588
9.11 -0.0312577
9.12 -0.0292295
9.13 -0.0268139
9.14 -0.024025
9.15 -0.0209575
9.16 -0.0176871
9.17 -0.0142809
9.18 -0.0108085
9.19 -0.00735303
9.2 -0.00398493
9.21 -0.000766532
9.22 0.00223423
9.23 0.00494118
9.24 0.00734172
9.25 0.00940701
9.26 0.0111169
9.27 0.0124075
9.28 0.01334
9.29 0.0139293
9.3 0.0141991
9.31 0.0141504
9.32 0.0138542
9.33 0.0133663
9.34 0.0127353
9.35 0.0120085
9.36 0.0112472
9.37 0.010506
9.38 0.00982965
9.39 0.00926466
9.4 0.00886032
9.41 0.00862861
9.42 0.0085873
9.43 0.00874754
9.44 0.00914164
9.45 0.00973098
9.46 0.010502
9.47 0.0114355
9.48 0.0125218
9.49 0.0137169
9.5 0.014987
9.51 0.016303
9.52 0.0176366
9.53 0.0189583
9.54 0.0202477
9.55 0.021491
9.56 0.0226775
9.57 0.0238036
9.58 0.0248838
9.59 0.0259335
9.6 0.0269749
9.61 0.0280444
9.62 0.0291772
9.63 0.030412
9.64 0.0317898
9.65 0.0333816
9.66 0.0352174
9.67 0.037329
9.68 0.0397505
9.69 0.0425417
9.7 0.0457215
9.71 0.0492753
9.72 0.0532038
9.73 0.0575146
9.74 0.0622057
9.75 0.0672034
9.76 0.0724655
9.77 0.077942
9.78 0.0835852
9.79 0.089297
9.8 0.0950048
9.81 0.100633
9.82 0.106075
9.83 0.111258
9.84 0.116116
9.85 0.120579
9.86 0.124541
9.87 0.127948
9.88 0.130791
9.89 0.133039
9.9 0.134642
9.91 0.135551
9.92 0.135842
9.93 0.135532
9.94 0.134643
9.95 0.133141
9.96 0.13116
9.97 0.128751
9.98 0.125972
9.99 0.122851
10 0.11949
10.01 0.115957
10.02 0.112313
10.03 0.108609
10.04 0.104905
10.05 0.101244
10.06 0.0976584
10.07 0.0941808
10.08 0.0908363
10.09 0.0876197
10.1 0.0845298
10.11 0.0815592
10.12 0.0787046
10.13 0.0759275
10.14 0.0732026
10.15 0.0705023
10.16 0.0677934
10.17 0.0650433
10.18 0.0622253
10.19 0.059315
10.2 0.0562796
10.21 0.0531034
10.22 0.0497849
10.23 0.0463199
10.24 0.0427029
10.25 0.0389355
10.26 0.0350472
10.27 0.0310563
10.28 0.0269844
10.29 0.0228537
10.3 0.0187029
10.31 0.0145606
10.32 0.0104547
10.33 0.0064244
10.34 0.00249059
10.35 -0.00132773
10.36 -0.00501352
10.37 -0.00853963
10.38 -0.0119012
10.39 -0.0151063
10.4 -0.0181575
10.41 -0.0210546
10.42 -0.0238039
10.43 -0.0264358
10.44 -0.0289676
10.45 -0.0314172
10.46 -0.0337985
10.47 -0.0361414
10.48 -0.0384627
10.49 -0.0407771
10.5 -0.043098
10.51 -0.0454327
10.52 -0.0477837
10.53 -0.0501489
10.54 -0.0525213
10.55 -0.0548869
10.56 -0.057229
10.57 -0.0595279
10.58 -0.0617561
10.59 -0.0638795
10.6 -0.0658799
10.61 -0.0677312
10.62 -0.0694057
10.63 -0.0708516
10.64 -0.072076
10.65 -0.0730636
10.66 -0.0738037
10.67 -0.0742558
10.68 -0.0744489
10.69 -0.0743957
10.7 -0.074108
10.71 -0.0735838
10.72 -0.0728565
10.73 -0.071966
10.74 -0.0709416
10.75 -0.0698107
10.76 -0.0686084
10.77 -0.0673764
10.78 -0.0661454
10.79 -0.0649445
10.8 -0.0638089
10.81 -0.0627529
10.82 -0.061791
10.83 -0.0609324
10.84 -0.0601952
10.85 -0.0595637
10.86 -0.0590262
10.87 -0.0585685
10.88 -0.0581759
10.89 -0.0578191
10.9 -0.0574688
10.91 -0.0570976
10.92 -0.0566731
10.93 -0.0561601
10.94 -0.0555396
10.95 -0.0547899
10.96 -0.0538905
10.97 -0.0528076
10.98 -0.0515572
10.99 -0.0501397
11 -0.0485616
11.01 -0.0468174
11.02 -0.0449473
11.03 -0.04298
11.04 -0.0409457
11.05 -0.0388791
11.06 -0.0368255
11.07 -0.0348252
11.08 -0.0329174
11.09 -0.0311499
11.1 -0.0295715
11.11 -0.0281992
11.12 -0.0270591
11.13 -0.0261774
11.14 -0.0256018
11.15 -0.0253014
11.16 -0.0252741
11.17 -0.025511
11.18 -0.0260276
11.19 -0.0267667
11.2 -0.0276929
11.21 -0.0287711
11.22 -0.0299688
11.23 -0.0312314
11.24 -0.0325089
11.25 -0.0337573
11.26 -0.034927
11.27 -0.0359665
11.28 -0.0368488
11.29 -0.0375433
11.3 -0.0380202
11.31 -0.0382318
11.32 -0.0381985
11.33 -0.0379176
11.34 -0.0373928
11.35 -0.0366033
11.36 -0.0355982
11.37 -0.0344048
11.38 -0.0330506
11.39 -0.0315567
11.4 -0.0299685
11.41 -0.0283274
11.42 -0.0266679
11.43 -0.0250259
11.44 -0.0234392
11.45 -0.021932
11.46 -0.0205267
11.47 -0.0192442
11.48 -0.0181135
11.49 -0.0171236
11.5 -0.0162752
11.51 -0.0155643
11.52 -0.0149989
11.53 -0.0145478
11.54 -0.0141924
11.55 -0.0139139
11.56 -0.0136962
11.57 -0.0135126
11.58 -0.013341
11.59 -0.0131637
11.6 -0.0129633
11.61 -0.0127252
11.62 -0.0124447
11.63 -0.0121191
11.64 -0.0117492
11.65 -0.0113384
11.66 -0.0109043
11.67 -0.0104623
11.68 -0.0100312
11.69 -0.00964047
11.7 -0.00931259
11.71 -0.00907165
11.72 -0.00894217
11.73 -0.0089644
11.74 -0.00915642
11.75 -0.00952864
11.76 -0.0100954
11.77 -0.0108809
11.78 -0.0118965
11.79 -0.0131214
11.8 -0.0145492
11.81 -0.0161725
11.82 -0.0179899
11.83 -0.0199535
11.84 -0.0220366
11.85 -0.0242094
11.86 -0.0264426
11.87 -0.02869
11.88 -0.0309158
11.89 -0.0330853
11.9 -0.0351519
11.91 -0.0370838
11.92 -0.0388585
11.93 -0.0404515
11.94 -0.0418277
