[DEFAULT]

version = diffpy.pdfgetx-2.2.1

# input and output specifications
dataformat = twotheta
inputfile = Synthetic_CSH_CSH_pdf_ramp_1000_09_normalized.chi
backgroundfiles = quartz_030degC_normalized.chi
outputtype = gr

# PDF calculation setup
mode = xray
wavelength = 0.2113
twothetazero = 0
composition = CaO SiO2
bgscales = 1.0
rpoly = 0.9
qmaxinst = 23.7031
qmin = 0.5
qmax = 20
rmin = 0
rmax = 60
rstep = 0.01

# End of config --------------------------------------------------------------

#### start data
#S 1
#L r(Å)  G(Å$^{-2}$)
0 0
0.01 0.000648189
0.02 0.00126511
0.03 0.00182461
0.04 0.00230283
0.05 0.0026648
0.06 0.00290067
0.07 0.00300456
0.08 0.00297171
0.09 0.00279237
0.1 0.00247536
0.11 0.0020446
0.12 0.00151779
0.13 0.000914555
0.14 0.000260402
0.15 -0.000409499
0.16 -0.00106772
0.17 -0.0016874
0.18 -0.00223002
0.19 -0.00268201
0.2 -0.00302672
0.21 -0.00325244
0.22 -0.00333768
0.23 -0.00329408
0.24 -0.00313432
0.25 -0.00287205
0.26 -0.00252143
0.27 -0.00211205
0.28 -0.00167838
0.29 -0.00125074
0.3 -0.000863212
0.31 -0.000556294
0.32 -0.000351677
0.33 -0.00027197
0.34 -0.000334559
0.35 -0.000573057
0.36 -0.00096326
0.37 -0.00149464
0.38 -0.00214695
0.39 -0.00289624
0.4 -0.00368628
0.41 -0.00446183
0.42 -0.00516283
0.43 -0.00570439
0.44 -0.00600078
0.45 -0.0059886
0.46 -0.00559256
0.47 -0.00471606
0.48 -0.00324188
0.49 -0.00116678
0.5 0.00155706
0.51 0.00496824
0.52 0.00919498
0.53 0.0141285
0.54 0.01975
0.55 0.0260223
0.56 0.0329547
0.57 0.0404037
0.58 0.0482511
0.59 0.0563834
0.6 0.0646738
0.61 0.0729515
0.62 0.081056
0.63 0.0888318
0.64 0.0960914
0.65 0.102608
0.66 0.108294
0.67 0.113011
0.68 0.116629
0.69 0.118847
0.7 0.119756
0.71 0.119296
0.72 0.11743
0.73 0.113967
0.74 0.109061
0.75 0.102805
0.76 0.0952694
0.77 0.0864538
0.78 0.076514
0.79 0.0656727
0.8 0.0540808
0.81 0.0418815
0.82 0.0292488
0.83 0.0164183
0.84 0.00356227
0.85 -0.00914961
0.86 -0.0214907
0.87 -0.0333471
0.88 -0.0445918
0.89 -0.0551155
0.9 -0.0647159
0.91 -0.0733972
0.92 -0.081147
0.93 -0.0879482
0.94 -0.0937244
0.95 -0.098526
0.96 -0.102471
0.97 -0.105628
0.98 -0.108048
0.99 -0.109806
1 -0.111085
1.01 -0.111993
1.02 -0.112644
1.03 -0.113146
1.04 -0.113642
1.05 -0.114233
1.06 -0.115012
1.07 -0.116108
1.08 -0.117573
1.09 -0.119455
1.1 -0.121794
1.11 -0.124668
1.12 -0.128082
1.13 -0.132003
1.14 -0.136419
1.15 -0.141334
1.16 -0.146736
1.17 -0.152533
1.18 -0.158681
1.19 -0.165132
1.2 -0.171856
1.21 -0.178753
1.22 -0.185764
1.23 -0.192827
1.24 -0.19987
1.25 -0.206822
1.26 -0.213617
1.27 -0.220189
1.28 -0.226432
1.29 -0.232265
1.3 -0.237632
1.31 -0.242448
1.32 -0.246587
1.33 -0.249895
1.34 -0.252344
1.35 -0.253827
1.36 -0.254221
1.37 -0.253232
1.38 -0.25091
1.39 -0.247142
1.4 -0.24182
1.41 -0.234606
1.42 -0.225572
1.43 -0.214688
1.44 -0.201894
1.45 -0.18697
1.46 -0.169954
1.47 -0.151
1.48 -0.130158
1.49 -0.107426
1.5 -0.08286
1.51 -0.0568172
1.52 -0.0294988
1.53 -0.00113074
1.54 0.0280704
1.55 0.0576525
1.56 0.0872803
1.57 0.116597
1.58 0.145084
1.59 0.172374
1.6 0.198099
1.61 0.221873
1.62 0.243068
1.63 0.261336
1.64 0.276514
1.65 0.288319
1.66 0.296297
1.67 0.300033
1.68 0.299787
1.69 0.295488
1.7 0.287064
1.71 0.274062
1.72 0.257203
1.73 0.236676
1.74 0.212727
1.75 0.185278
1.76 0.155086
1.77 0.122626
1.78 0.088333
1.79 0.0525822
1.8 0.0159847
1.81 -0.0208925
1.82 -0.0575685
1.83 -0.0935097
1.84 -0.128135
1.85 -0.161118
1.86 -0.19209
1.87 -0.220679
1.88 -0.246241
1.89 -0.268918
1.9 -0.28856
1.91 -0.305076
1.92 -0.317997
1.93 -0.327721
1.94 -0.334405
1.95 -0.338185
1.96 -0.338989
1.97 -0.337167
1.98 -0.333133
1.99 -0.327149
2 -0.319409
2.01 -0.310181
2.02 -0.299897
2.03 -0.288814
2.04 -0.277161
2.05 -0.265136
2.06 -0.252981
2.07 -0.240832
2.08 -0.22879
2.09 -0.216947
2.1 -0.205306
2.11 -0.193846
2.12 -0.182518
2.13 -0.171242
2.14 -0.159898
2.15 -0.148363
2.16 -0.136512
2.17 -0.12418
2.18 -0.111198
2.19 -0.097504
2.2 -0.0830081
2.21 -0.0676263
2.22 -0.0512114
2.23 -0.0338948
2.24 -0.0157204
2.25 0.00323024
2.26 0.0229075
2.27 0.0430446
2.28 0.063425
2.29 0.0838136
2.3 0.103893
2.31 0.123337
2.32 0.141859
2.33 0.159153
2.34 0.174796
2.35 0.188365
2.36 0.199741
2.37 0.208673
2.38 0.214879
2.39 0.217818
2.4 0.217743
2.41 0.214577
2.42 0.208294
2.43 0.198493
2.44 0.185659
2.45 0.169997
2.46 0.151703
2.47 0.130806
2.48 0.107754
2.49 0.083009
2.5 0.0569264
2.51 0.0298449
2.52 0.00220409
2.53 -0.0255235
2.54 -0.0529587
2.55 -0.079714
2.56 -0.105281
2.57 -0.129461
2.58 -0.151993
2.59 -0.172655
2.6 -0.190962
2.61 -0.207042
2.62 -0.220873
2.63 -0.232448
2.64 -0.241589
2.65 -0.248516
2.66 -0.253502
2.67 -0.25673
2.68 -0.258337
2.69 -0.258575
2.7 -0.257855
2.71 -0.256454
2.72 -0.254648
2.73 -0.252745
2.74 -0.251045
2.75 -0.249788
2.76 -0.249183
2.77 -0.249554
2.78 -0.250947
2.79 -0.253441
2.8 -0.257088
2.81 -0.262016
2.82 -0.268117
2.83 -0.27524
2.84 -0.28326
2.85 -0.29205
2.86 -0.301394
2.87 -0.311003
2.88 -0.320632
2.89 -0.330016
2.9 -0.338795
2.91 -0.346749
2.92 -0.353627
2.93 -0.359192
2.94 -0.362973
2.95 -0.36496
2.96 -0.365021
2.97 -0.363033
2.98 -0.358678
2.99 -0.352022
3 -0.343182
3.01 -0.332201
3.02 -0.319025
3.03 -0.30375
3.04 -0.286721
3.05 -0.268126
3.06 -0.248144
3.07 -0.226932
3.08 -0.204911
3.09 -0.182343
3.1 -0.159489
3.11 -0.136647
3.12 -0.114108
3.13 -0.0921126
3.14 -0.0708867
3.15 -0.0507627
3.16 -0.0318941
3.17 -0.0143768
3.18 0.00166915
3.19 0.0160411
3.2 0.0286357
3.21 0.0395773
3.22 0.0488749
3.23 0.0565212
3.24 0.0624378
3.25 0.0669296
3.26 0.0701131
3.27 0.0721227
3.28 0.0729789
3.29 0.0730075
3.3 0.0723902
3.31 0.071302
3.32 0.0699055
3.33 0.0684193
3.34 0.0670211
3.35 0.0658662
3.36 0.0651352
3.37 0.064991
3.38 0.065505
3.39 0.0667685
3.4 0.0688819
3.41 0.0719926
3.42 0.0760204
3.43 0.0809751
3.44 0.0868478
3.45 0.09374
3.46 0.101472
3.47 0.109972
3.48 0.119163
3.49 0.129009
3.5 0.139354
3.51 0.150059
3.52 0.161006
3.53 0.172074
3.54 0.183115
3.55 0.193997
3.56 0.2046
3.57 0.214789
3.58 0.224386
3.59 0.233344
3.6 0.241568
3.61 0.248975
3.62 0.255346
3.63 0.260742
3.64 0.265123
3.65 0.268456
3.66 0.270594
3.67 0.271599
3.68 0.271526
3.69 0.27039
3.7 0.268145
3.71 0.264821
3.72 0.260554
3.73 0.255396
3.74 0.249382
3.75 0.242516
3.76 0.23497
3.77 0.226813
3.78 0.218116
3.79 0.208887
3.8 0.199272
3.81 0.189339
3.82 0.17915
3.83 0.168746
3.84 0.158202
3.85 0.147573
3.86 0.136899
3.87 0.126221
3.88 0.115575
3.89 0.104989
3.9 0.0944841
3.91 0.0840852
3.92 0.0738231
3.93 0.0637005
3.94 0.0537327
3.95 0.0439358
3.96 0.0343593
3.97 0.0249967
3.98 0.0158701
3.99 0.00700547
4 -0.00152977
4.01 -0.00971702
4.02 -0.0175311
4.03 -0.0249304
4.04 -0.0318315
4.05 -0.0381736
4.06 -0.0439472
4.07 -0.0491029
4.08 -0.053566
4.09 -0.0572204
4.1 -0.0601075
4.11 -0.0621902
4.12 -0.0634374
4.13 -0.0636873
4.14 -0.0630575
4.15 -0.0615477
4.16 -0.059165
4.17 -0.0558309
4.18 -0.051646
4.19 -0.0466911
4.2 -0.0410214
4.21 -0.0346583
4.22 -0.0276921
4.23 -0.0202615
4.24 -0.0124601
4.25 -0.00438071
4.26 0.00386938
4.27 0.0121553
4.28 0.0203729
4.29 0.0284207
4.3 0.0361448
4.31 0.0434879
4.32 0.0503708
4.33 0.0567243
4.34 0.0624149
4.35 0.0674392
4.36 0.0717946
4.37 0.0754681
4.38 0.078408
4.39 0.0806348
4.4 0.0822365
4.41 0.0832588
4.42 0.0837408
4.43 0.0837262
4.44 0.0833538
4.45 0.082707
4.46 0.0818733
4.47 0.080941
4.48 0.0800251
4.49 0.0792118
4.5 0.0785831
4.51 0.0782543
4.52 0.0782808
4.53 0.0787072
4.54 0.0795782
4.55 0.0809681
4.56 0.0828996
4.57 0.0853404
4.58 0.0882846
4.59 0.0917339
4.6 0.0956896
4.61 0.100054
4.62 0.10478
4.63 0.109811
4.64 0.115118
4.65 0.120587
4.66 0.126154
4.67 0.131751
4.68 0.1373
4.69 0.142731
4.7 0.147989
4.71 0.153019
4.72 0.157747
4.73 0.162126
4.74 0.166144
4.75 0.169774
4.76 0.172977
4.77 0.175705
4.78 0.177999
4.79 0.179856
4.8 0.181273
4.81 0.182188
4.82 0.182675
4.83 0.18274
4.84 0.182388
4.85 0.181574
4.86 0.180338
4.87 0.178695
4.88 0.176644
4.89 0.174145
4.9 0.171193
4.91 0.16781
4.92 0.163984
4.93 0.159683
4.94 0.154857
4.95 0.149549
4.96 0.143745
4.97 0.137437
4.98 0.130542
4.99 0.12314
5 0.115237
5.01 0.106845
5.02 0.0979254
5.03 0.0885525
5.04 0.0787766
5.05 0.0686392
5.06 0.0581661
5.07 0.0474269
5.08 0.0365057
5.09 0.025468
5.1 0.0143844
5.11 0.00334124
5.12 -0.00758551
5.13 -0.0183241
5.14 -0.0288025
5.15 -0.0388962
5.16 -0.0485872
5.17 -0.057821
5.18 -0.0665498
5.19 -0.0746599
5.2 -0.0821672
5.21 -0.0890695
5.22 -0.0953545
5.23 -0.100965
5.24 -0.105917
5.25 -0.11027
5.26 -0.114045
5.27 -0.117245
5.28 -0.119875
5.29 -0.12203
5.3 -0.123748
5.31 -0.125066
5.32 -0.125974
5.33 -0.126566
5.34 -0.126873
5.35 -0.126924
5.36 -0.126714
5.37 -0.126283
5.38 -0.125648
5.39 -0.124815
5.4 -0.123761
5.41 -0.122481
5.42 -0.120976
5.43 -0.119228
5.44 -0.117202
5.45 -0.114853
5.46 -0.112187
5.47 -0.10918
5.48 -0.105807
5.49 -0.101992
5.5 -0.0977764
5.51 -0.0931496
5.52 -0.088108
5.53 -0.0826007
5.54 -0.0766798
5.55 -0.0703749
5.56 -0.0637095
5.57 -0.0566869
5.58 -0.0493574
5.59 -0.0417861
5.6 -0.0340194
5.61 -0.0261026
5.62 -0.018092
5.63 -0.0100552
5.64 -0.00204524
5.65 0.00588514
5.66 0.0136617
5.67 0.0212539
5.68 0.0286217
5.69 0.0357304
5.7 0.0425093
5.71 0.0489624
5.72 0.0550827
5.73 0.0608601
5.74 0.0662587
5.75 0.0712883
5.76 0.0759792
5.77 0.0803414
5.78 0.0843721
5.79 0.0880715
5.8 0.0914888
5.81 0.0946389
5.82 0.0975327
5.83 0.100151
5.84 0.102538
5.85 0.104699
5.86 0.106635
5.87 0.108312
5.88 0.109745
5.89 0.110931
5.9 0.111854
5.91 0.112469
5.92 0.112762
5.93 0.112731
5.94 0.112356
5.95 0.111598
5.96 0.110419
5.97 0.108845
5.98 0.106868
5.99 0.104481
6 0.101634
6.01 0.098399
6.02 0.094794
6.03 0.0908443
6.04 0.0865454
6.05 0.0819768
6.06 0.0771927
6.07 0.0722445
6.08 0.0671835
6.09 0.0620829
6.1 0.0570098
6.11 0.0520255
6.12 0.0472012
6.13 0.0426151
6.14 0.0383022
6.15 0.0343092
6.16 0.0306824
6.17 0.0275097
6.18 0.0247591
6.19 0.0224434
6.2 0.0205662
6.21 0.0191785
6.22 0.0182129
6.23 0.0176324
6.24 0.0174026
6.25 0.017507
6.26 0.0178777
6.27 0.0184418
6.28 0.0191422
6.29 0.0199206
6.3 0.0207072
6.31 0.0214377
6.32 0.0220569
6.33 0.02251
6.34 0.0227178
6.35 0.0226674
6.36 0.0223281
6.37 0.0216765
6.38 0.020651
6.39 0.0192828
6.4 0.0175824
6.41 0.0155604
6.42 0.0132073
6.43 0.0105634
6.44 0.00767836
6.45 0.00458751
6.46 0.00132201
6.47 -0.00207526
6.48 -0.00554664
6.49 -0.00905104
6.5 -0.0125479
6.51 -0.0159888
6.52 -0.019343
6.53 -0.0225817
6.54 -0.0256802
6.55 -0.0285945
6.56 -0.0313276
6.57 -0.0338746
6.58 -0.0362318
6.59 -0.0383811
6.6 -0.0403359
6.61 -0.042116
6.62 -0.0437322
6.63 -0.0451888
6.64 -0.0464959
6.65 -0.0476817
6.66 -0.0487586
6.67 -0.0497358
6.68 -0.0506128
6.69 -0.0514083
6.7 -0.052125
6.71 -0.0527623
6.72 -0.0533041
6.73 -0.0537518
6.74 -0.0540964
6.75 -0.0543247
6.76 -0.0544062
6.77 -0.0543262
6.78 -0.0540745
6.79 -0.0536325
6.8 -0.0529685
6.81 -0.0520538
6.82 -0.050895
6.83 -0.0494797
6.84 -0.0477926
6.85 -0.0457955
6.86 -0.0435242
6.87 -0.0409814
6.88 -0.0381734
6.89 -0.0350766
6.9 -0.0317395
6.91 -0.0281856
6.92 -0.0244368
6.93 -0.0205034
6.94 -0.0164251
6.95 -0.0122409
6.96 -0.00798114
6.97 -0.00367616
6.98 0.000637375
6.99 0.00492527
7 0.0091579
7.01 0.0133043
7.02 0.0173207
7.03 0.0211953
7.04 0.0249054
7.05 0.0284307
7.06 0.0317211
7.07 0.034784
7.08 0.0376087
7.09 0.0401824
7.1 0.0424656
7.11 0.0444589
7.12 0.0461684
7.13 0.0475857
7.14 0.0486833
7.15 0.0494428
7.16 0.0498861
7.17 0.0500066
7.18 0.0497896
7.19 0.0491911
7.2 0.0482509
7.21 0.0469646
7.22 0.0453291
7.23 0.0432916
7.24 0.0408983
7.25 0.0381571
7.26 0.0350729
7.27 0.0316195
7.28 0.0278269
7.29 0.0237283
7.3 0.0193417
7.31 0.0146727
7.32 0.0097446
7.33 0.00461087
7.34 -0.000696733
7.35 -0.00614649
7.36 -0.0117063
7.37 -0.0173197
7.38 -0.0229466
7.39 -0.0285463
7.4 -0.0340621
7.41 -0.0394574
7.42 -0.0446945
7.43 -0.049736
7.44 -0.0545186
7.45 -0.0590173
7.46 -0.0632161
7.47 -0.0670901
7.48 -0.0705929
7.49 -0.0736947
7.5 -0.0764148
7.51 -0.0787438
7.52 -0.0806645
7.53 -0.0821321
7.54 -0.0832002
7.55 -0.0838721
7.56 -0.0841533
7.57 -0.0839955
7.58 -0.0834607
7.59 -0.0825635
7.6 -0.0813142
7.61 -0.079688
7.62 -0.0777173
7.63 -0.0754304
7.64 -0.0728385
7.65 -0.0699329
7.66 -0.0667208
7.67 -0.0632401
7.68 -0.0595026
7.69 -0.0555144
7.7 -0.0512685
7.71 -0.0468121
7.72 -0.0421627
7.73 -0.0373401
7.74 -0.0323473
7.75 -0.0272337
7.76 -0.0220293
7.77 -0.016765
7.78 -0.0114761
7.79 -0.00620747
7.8 -0.000999807
7.81 0.00410518
7.82 0.00905061
7.83 0.0137795
7.84 0.0182609
7.85 0.0224505
7.86 0.0262931
7.87 0.029703
7.88 0.0326868
7.89 0.0352096
7.9 0.0372405
7.91 0.0386714
7.92 0.0395533
7.93 0.0398766
7.94 0.0396327
7.95 0.0387557
7.96 0.0372862
7.97 0.0352623
7.98 0.0327
7.99 0.0295845
8 0.0259386
8.01 0.0218376
8.02 0.0173143
8.03 0.0123928
8.04 0.00708261
8.05 0.00146962
8.06 -0.00440901
8.07 -0.0105169
8.08 -0.0168437
8.09 -0.0233248
8.1 -0.0299291
8.11 -0.0366296
8.12 -0.0434079
8.13 -0.0502354
8.14 -0.0570917
8.15 -0.0639621
8.16 -0.0708336
8.17 -0.077694
8.18 -0.0845347
8.19 -0.091348
8.2 -0.0981248
8.21 -0.104852
8.22 -0.111524
8.23 -0.118131
8.24 -0.124661
8.25 -0.13108
8.26 -0.137384
8.27 -0.143552
8.28 -0.149561
8.29 -0.15536
8.3 -0.160929
8.31 -0.166247
8.32 -0.171282
8.33 -0.175977
8.34 -0.180288
8.35 -0.184214
8.36 -0.187725
8.37 -0.190777
8.38 -0.193302
8.39 -0.195338
8.4 -0.196869
8.41 -0.197886
8.42 -0.198306
8.43 -0.198208
8.44 -0.197602
8.45 -0.196503
8.46 -0.194876
8.47 -0.192784
8.48 -0.190274
8.49 -0.187379
8.5 -0.184109
8.51 -0.180504
8.52 -0.176631
8.53 -0.172526
8.54 -0.168218
8.55 -0.163735
8.56 -0.159128
8.57 -0.154425
8.58 -0.14965
8.59 -0.144816
8.6 -0.139946
8.61 -0.135049
8.62 -0.130131
8.63 -0.125187
8.64 -0.120216
8.65 -0.11521
8.66 -0.110158
8.67 -0.105044
8.68 -0.0998505
8.69 -0.0945688
8.7 -0.089186
8.71 -0.0836857
8.72 -0.0780468
8.73 -0.0722773
8.74 -0.0663746
8.75 -0.0603398
8.76 -0.0541588
8.77 -0.0478627
8.78 -0.0414657
8.79 -0.0349858
8.8 -0.0284397
8.81 -0.0218608
8.82 -0.0152784
8.83 -0.0087212
8.84 -0.00222502
8.85 0.00417506
8.86 0.0104561
8.87 0.0165923
8.88 0.0225526
8.89 0.0282989
8.9 0.0338373
8.91 0.0391571
8.92 0.0442526
8.93 0.0490872
8.94 0.0537024
8.95 0.0581082
8.96 0.062319
8.97 0.0663342
8.98 0.0701938
8.99 0.0739297
9 0.0775687
9.01 0.081135
9.02 0.0846622
9.03 0.0881819
9.04 0.0917191
9.05 0.0952985
9.06 0.098947
9.07 0.102673
9.08 0.106487
9.09 0.110394
9.1 0.114409
9.11 0.118511
9.12 0.12269
9.13 0.126932
9.14 0.13122
9.15 0.135525
9.16 0.139821
9.17 0.14408
9.18 0.148267
9.19 0.152346
9.2 0.156295
9.21 0.160088
9.22 0.163691
9.23 0.167063
9.24 0.170207
9.25 0.173109
9.26 0.175757
9.27 0.178103
9.28 0.180185
9.29 0.182005
9.3 0.183568
9.31 0.184852
9.32 0.185893
9.33 0.186712
9.34 0.187326
9.35 0.187734
9.36 0.187959
9.37 0.18803
9.38 0.187962
9.39 0.187763
9.4 0.187438
9.41 0.187011
9.42 0.186486
9.43 0.185869
9.44 0.185146
9.45 0.184331
9.46 0.183419
9.47 0.182404
9.48 0.181267
9.49 0.180007
9.5 0.178619
9.51 0.177097
9.52 0.175419
9.53 0.17358
9.54 0.171587
9.55 0.169436
9.56 0.167122
9.57 0.164637
9.58 0.162004
9.59 0.159234
9.6 0.156336
9.61 0.153311
9.62 0.150195
9.63 0.147005
9.64 0.143764
9.65 0.14049
9.66 0.137211
9.67 0.133952
9.68 0.130732
9.69 0.127581
9.7 0.12452
9.71 0.121562
9.72 0.118721
9.73 0.116018
9.74 0.113474
9.75 0.111081
9.76 0.108846
9.77 0.106772
9.78 0.104883
9.79 0.103155
9.8 0.101584
9.81 0.100169
9.82 0.0989223
9.83 0.0978263
9.84 0.0968716
9.85 0.0960551
9.86 0.0953859
9.87 0.09486
9.88 0.0944677
9.89 0.0942105
9.9 0.0940978
9.91 0.0941431
9.92 0.0943362
9.93 0.094683
9.94 0.0951917
9.95 0.0958934
9.96 0.0967699
9.97 0.0978266
9.98 0.0990678
9.99 0.100521
10 0.102167
10.01 0.103999
10.02 0.106012
10.03 0.108212
10.04 0.110582
10.05 0.113096
10.06 0.115735
10.07 0.118484
10.08 0.121318
10.09 0.1242
10.1 0.127101
10.11 0.129991
10.12 0.132827
10.13 0.13558
10.14 0.138218
10.15 0.140709
10.16 0.142996
10.17 0.145065
10.18 0.146892
10.19 0.148455
10.2 0.149703
10.21 0.15062
10.22 0.151212
10.23 0.151466
10.24 0.151355
10.25 0.150851
10.26 0.14999
10.27 0.148771
10.28 0.14719
10.29 0.145206
10.3 0.142876
10.31 0.140206
10.32 0.137205
10.33 0.13384
10.34 0.130154
10.35 0.126165
10.36 0.121883
10.37 0.117291
10.38 0.112408
10.39 0.10726
10.4 0.101858
10.41 0.0961984
10.42 0.0902792
10.43 0.0841368
10.44 0.077782
10.45 0.0712239
10.46 0.0644525
10.47 0.0575111
10.48 0.0504151
10.49 0.0431815
10.5 0.0358152
10.51 0.0283518
10.52 0.0208156
10.53 0.0132286
10.54 0.00561356
10.55 -0.00200074
10.56 -0.00958917
10.57 -0.0171283
10.58 -0.0245901
10.59 -0.0319442
10.6 -0.0391789
10.61 -0.046276
10.62 -0.0532168
10.63 -0.0599644
10.64 -0.0665312
10.65 -0.0729097
10.66 -0.0790951
10.67 -0.0850587
10.68 -0.0908234
10.69 -0.0963974
10.7 -0.101786
10.71 -0.10698
10.72 -0.111996
10.73 -0.116854
10.74 -0.121563
10.75 -0.126126
10.76 -0.130545
10.77 -0.134842
10.78 -0.139022
10.79 -0.143085
10.8 -0.147017
10.81 -0.150832
10.82 -0.154525
10.83 -0.158087
10.84 -0.161486
10.85 -0.164725
10.86 -0.167792
10.87 -0.170669
10.88 -0.173318
10.89 -0.175725
10.9 -0.177887
10.91 -0.179787
10.92 -0.181394
10.93 -0.182681
10.94 -0.183668
10.95 -0.184348
10.96 -0.184716
10.97 -0.184735
10.98 -0.184458
10.99 -0.183894
11 -0.18306
11.01 -0.181942
11.02 -0.180596
11.03 -0.179054
11.04 -0.177344
11.05 -0.175486
11.06 -0.173523
11.07 -0.171493
11.08 -0.169429
11.09 -0.167361
11.1 -0.165323
11.11 -0.16334
11.12 -0.161433
11.13 -0.159622
11.14 -0.157936
11.15 -0.156371
11.16 -0.15493
11.17 -0.153615
11.18 -0.152438
11.19 -0.151378
11.2 -0.15042
11.21 -0.149553
11.22 -0.148767
11.23 -0.14804
11.24 -0.147353
11.25 -0.14669
11.26 -0.146034
11.27 -0.145372
11.28 -0.144692
11.29 -0.143987
11.3 -0.143252
11.31 -0.142483
11.32 -0.141688
11.33 -0.140873
11.34 -0.140049
11.35 -0.139231
11.36 -0.138438
11.37 -0.137686
11.38 -0.136996
11.39 -0.136397
11.4 -0.135909
11.41 -0.135545
11.42 -0.135324
11.43 -0.135269
11.44 -0.135401
11.45 -0.135711
11.46 -0.136203
11.47 -0.136881
11.48 -0.137758
11.49 -0.138799
11.5 -0.13999
11.51 -0.141313
11.52 -0.142759
11.53 -0.144284
11.54 -0.14586
11.55 -0.147458
11.56 -0.149044
11.57 -0.150584
11.58 -0.152049
11.59 -0.153412
11.6 -0.154639
11.61 -0.155699
11.62 -0.156588
11.63 -0.157292
11.64 -0.157796
11.65 -0.158073
11.66 -0.15815
11.67 -0.158032
11.68 -0.157727
11.69 -0.157222
11.7 -0.156559
11.71 -0.155758
11.72 -0.154838
11.73 -0.153811
11.74 -0.152707
11.75 -0.151549
11.76 -0.150357
11.77 -0.149148
11.78 -0.147936
11.79 -0.146734
11.8 -0.145548
11.81 -0.144383
11.82 -0.143239
11.83 -0.14211
11.84 -0.140985
11.85 -0.139855
11.86 -0.1387
11.87 -0.137504
11.88 -0.136248
11.89 -0.134914
11.9 -0.13347
11.91 -0.131899
11.92 -0.130188
11.93 -0.128322
11.94 -0.126274
11.95 -0.124029
11.96 -0.121594
11.97 -0.118968
11.98 -0.116144
11.99 -0.113108
12 -0.109893
12.01 -0.106511
12.02 -0.102977
12.03 -0.0992892
12.04 -0.0954888
12.05 -0.0915979
12.06 -0.0876383
12.07 -0.0836294
12.08 -0.0795991
12.09 -0.0755703
12.1 -0.0715619
