[DEFAULT]

version = diffpy.pdfgetx-2.2.1

# input and output specifications
dataformat = twotheta
inputfile = Synthetic_CSH_CSH_pdf_ramp_400_08_normalized.chi
backgroundfiles = quartz_030degC_normalized.chi
outputtype = gr

# PDF calculation setup
mode = xray
wavelength = 0.2113
twothetazero = 0
composition = CaO SiO2
bgscales = 1.0
rpoly = 0.9
qmaxinst = 23.7031
qmin = 0.5
qmax = 20
rmin = 0
rmax = 60
rstep = 0.01

# End of config --------------------------------------------------------------

#### start data
#S 1
#L r(Å)  G(Å$^{-2}$)
0 0
0.01 -0.00338021
0.02 -0.00663707
0.03 -0.009666
0.04 -0.0123692
0.05 -0.0145988
0.06 -0.0163037
0.07 -0.0174447
0.08 -0.0179825
0.09 -0.0178453
0.1 -0.017035
0.11 -0.0156249
0.12 -0.0136567
0.13 -0.0111726
0.14 -0.00823115
0.15 -0.00498331
0.16 -0.00153323
0.17 0.00200719
0.18 0.00549832
0.19 0.00881325
0.2 0.0118377
0.21 0.014464
0.22 0.0165229
0.23 0.0179612
0.24 0.018735
0.25 0.0187993
0.26 0.0180686
0.27 0.0165473
0.28 0.0143197
0.29 0.0114348
0.3 0.00794217
0.31 0.00391525
0.32 -0.000464591
0.33 -0.00506783
0.34 -0.00975281
0.35 -0.014334
0.36 -0.0186489
0.37 -0.0225422
0.38 -0.0258626
0.39 -0.0283618
0.4 -0.0299541
0.41 -0.0305573
0.42 -0.0300813
0.43 -0.0283586
0.44 -0.0253515
0.45 -0.0211407
0.46 -0.0157451
0.47 -0.00916428
0.48 -0.00141239
0.49 0.0072739
0.5 0.016766
0.51 0.0269175
0.52 0.0376089
0.53 0.0485624
0.54 0.0595882
0.55 0.0704929
0.56 0.0810199
0.57 0.0909825
0.58 0.100217
0.59 0.108562
0.6 0.115774
0.61 0.121718
0.62 0.126379
0.63 0.12969
0.64 0.13154
0.65 0.131816
0.66 0.130694
0.67 0.128212
0.68 0.124426
0.69 0.119251
0.7 0.112986
0.71 0.105747
0.72 0.0976557
0.73 0.0887675
0.74 0.0792993
0.75 0.0694016
0.76 0.0591954
0.77 0.0487846
0.78 0.0382893
0.79 0.027804
0.8 0.0173952
0.81 0.0071213
0.82 -0.00296866
0.83 -0.012876
0.84 -0.0225998
0.85 -0.0321502
0.86 -0.0415304
0.87 -0.0507954
0.88 -0.0599779
0.89 -0.0691106
0.9 -0.078224
0.91 -0.0873461
0.92 -0.0964897
0.93 -0.105656
0.94 -0.114832
0.95 -0.123984
0.96 -0.133065
0.97 -0.142015
0.98 -0.150748
0.99 -0.159142
1 -0.167126
1.01 -0.174596
1.02 -0.181442
1.03 -0.18744
1.04 -0.192594
1.05 -0.196818
1.06 -0.200043
1.07 -0.202076
1.08 -0.202994
1.09 -0.202831
1.1 -0.201618
1.11 -0.199331
1.12 -0.196101
1.13 -0.19212
1.14 -0.187537
1.15 -0.182513
1.16 -0.177263
1.17 -0.17204
1.18 -0.16706
1.19 -0.162549
1.2 -0.158847
1.21 -0.156073
1.22 -0.154404
1.23 -0.153989
1.24 -0.155135
1.25 -0.157783
1.26 -0.161913
1.27 -0.1675
1.28 -0.174583
1.29 -0.182973
1.3 -0.192384
1.31 -0.20258
1.32 -0.213289
1.33 -0.224139
1.34 -0.234725
1.35 -0.244667
1.36 -0.253555
1.37 -0.260736
1.38 -0.265994
1.39 -0.268964
1.4 -0.269312
1.41 -0.266322
1.42 -0.260032
1.43 -0.250354
1.44 -0.237184
1.45 -0.220166
1.46 -0.199456
1.47 -0.175438
1.48 -0.14833
1.49 -0.118299
1.5 -0.0856625
1.51 -0.0511604
1.52 -0.0152965
1.53 0.021383
1.54 0.058225
1.55 0.0945213
1.56 0.129655
1.57 0.163016
1.58 0.193618
1.59 0.221089
1.6 0.244992
1.61 0.264888
1.62 0.279959
1.63 0.289996
1.64 0.295102
1.65 0.295179
1.66 0.289942
1.67 0.279251
1.68 0.26383
1.69 0.243953
1.7 0.219913
1.71 0.191725
1.72 0.16046
1.73 0.126649
1.74 0.0908539
1.75 0.0535446
1.76 0.0155457
1.77 -0.0225368
1.78 -0.060151
1.79 -0.0966354
1.8 -0.131469
1.81 -0.164316
1.82 -0.194835
1.83 -0.222587
1.84 -0.247205
1.85 -0.268849
1.86 -0.287474
1.87 -0.303049
1.88 -0.315308
1.89 -0.324833
1.9 -0.331822
1.91 -0.336508
1.92 -0.338911
1.93 -0.339586
1.94 -0.338863
1.95 -0.337023
1.96 -0.334276
1.97 -0.330932
1.98 -0.327243
1.99 -0.32337
2 -0.319436
2.01 -0.315519
2.02 -0.311635
2.03 -0.307749
2.04 -0.303777
2.05 -0.299551
2.06 -0.294919
2.07 -0.289691
2.08 -0.283654
2.09 -0.276411
2.1 -0.26783
2.11 -0.257717
2.12 -0.245875
2.13 -0.231927
2.14 -0.215791
2.15 -0.197497
2.16 -0.177008
2.17 -0.154206
2.18 -0.129092
2.19 -0.102019
2.2 -0.0731758
2.21 -0.042777
2.22 -0.0110126
2.23 0.0215717
2.24 0.0546029
2.25 0.0876822
2.26 0.12028
2.27 0.151957
2.28 0.182297
2.29 0.210887
2.3 0.23708
2.31 0.260543
2.32 0.281092
2.33 0.298457
2.34 0.3122
2.35 0.321999
2.36 0.328106
2.37 0.330491
2.38 0.329106
2.39 0.323639
2.4 0.314758
2.41 0.302673
2.42 0.287635
2.43 0.269605
2.44 0.249285
2.45 0.227079
2.46 0.203356
2.47 0.178419
2.48 0.152764
2.49 0.12682
2.5 0.10094
2.51 0.0755003
2.52 0.0508848
2.53 0.0273106
2.54 0.00500602
2.55 -0.0158004
2.56 -0.034752
2.57 -0.0519549
2.58 -0.0673465
2.59 -0.0809005
2.6 -0.0923681
2.61 -0.102033
2.62 -0.110002
2.63 -0.116375
2.64 -0.121133
2.65 -0.124506
2.66 -0.126724
2.67 -0.127941
2.68 -0.128271
2.69 -0.127876
2.7 -0.126983
2.71 -0.125733
2.72 -0.124255
2.73 -0.122676
2.74 -0.121124
2.75 -0.119689
2.76 -0.118446
2.77 -0.117499
2.78 -0.116866
2.79 -0.116573
2.8 -0.116638
2.81 -0.117106
2.82 -0.117952
2.83 -0.119142
2.84 -0.120651
2.85 -0.122466
2.86 -0.124552
2.87 -0.126837
2.88 -0.129277
2.89 -0.131822
2.9 -0.134415
2.91 -0.136987
2.92 -0.139482
2.93 -0.141839
2.94 -0.143963
2.95 -0.145811
2.96 -0.147326
2.97 -0.148452
2.98 -0.149077
2.99 -0.149164
3 -0.148688
3.01 -0.147607
3.02 -0.145836
3.03 -0.143323
3.04 -0.140108
3.05 -0.136178
3.06 -0.131511
3.07 -0.126044
3.08 -0.119894
3.09 -0.113092
3.1 -0.105681
3.11 -0.0976416
3.12 -0.0891214
3.13 -0.0802004
3.14 -0.0709592
3.15 -0.0614678
3.16 -0.0518449
3.17 -0.0421927
3.18 -0.0326013
3.19 -0.0231739
3.2 -0.0140119
3.21 -0.00517142
3.22 0.00328634
3.23 0.011298
3.24 0.0187753
3.25 0.0257592
3.26 0.0322478
3.27 0.0382545
3.28 0.0437469
3.29 0.0488404
3.3 0.0536015
3.31 0.0581037
3.32 0.0624213
3.33 0.0666726
3.34 0.0709628
3.35 0.0753907
3.36 0.0800772
3.37 0.085139
3.38 0.0906357
3.39 0.0966395
3.4 0.103228
3.41 0.110508
3.42 0.118427
3.43 0.126983
3.44 0.136159
3.45 0.145994
3.46 0.156337
3.47 0.167097
3.48 0.178176
3.49 0.189464
3.5 0.200798
3.51 0.212027
3.52 0.223004
3.53 0.233539
3.54 0.243446
3.55 0.252618
3.56 0.260923
3.57 0.2682
3.58 0.27422
3.59 0.279027
3.6 0.282554
3.61 0.284756
3.62 0.285403
3.63 0.284693
3.64 0.282665
3.65 0.279366
3.66 0.27474
3.67 0.268969
3.68 0.262216
3.69 0.254601
3.7 0.246208
3.71 0.237192
3.72 0.227754
3.73 0.21803
3.74 0.208154
3.75 0.198271
3.76 0.188512
3.77 0.178978
3.78 0.169757
3.79 0.160992
3.8 0.152684
3.81 0.144866
3.82 0.137557
3.83 0.130819
3.84 0.124598
3.85 0.118845
3.86 0.113519
3.87 0.108597
3.88 0.104017
3.89 0.0996882
3.9 0.0955521
3.91 0.0915531
3.92 0.0876358
3.93 0.0837396
3.94 0.0798269
3.95 0.0758699
3.96 0.0718406
3.97 0.0677447
3.98 0.0635924
3.99 0.0594048
4 0.0552192
4.01 0.0510874
4.02 0.0470633
4.03 0.0432083
4.04 0.0396125
4.05 0.0363625
4.06 0.0335085
4.07 0.0311201
4.08 0.0292855
4.09 0.0281266
4.1 0.0276265
4.11 0.0278265
4.12 0.0287572
4.13 0.0305566
4.14 0.0331127
4.15 0.0364119
4.16 0.0404299
4.17 0.0452034
4.18 0.0506204
4.19 0.0565871
4.2 0.063028
4.21 0.0698816
4.22 0.0770376
4.23 0.0843668
4.24 0.0917671
4.25 0.0991296
4.26 0.106322
4.27 0.113251
4.28 0.119823
4.29 0.125947
4.3 0.131446
4.31 0.136324
4.32 0.140522
4.33 0.14399
4.34 0.146595
4.35 0.14837
4.36 0.149335
4.37 0.14949
4.38 0.148786
4.39 0.147249
4.4 0.144978
4.41 0.142016
4.42 0.138391
4.43 0.134124
4.44 0.129354
4.45 0.124147
4.46 0.118572
4.47 0.112663
4.48 0.106545
4.49 0.100284
4.5 0.0939454
4.51 0.0875941
4.52 0.0812947
4.53 0.0750957
4.54 0.0690385
4.55 0.063175
4.56 0.0575366
4.57 0.0521266
4.58 0.0469556
4.59 0.0420366
4.6 0.0373824
4.61 0.0329517
4.62 0.0287261
4.63 0.0246821
4.64 0.0208104
4.65 0.0170501
4.66 0.0133656
4.67 0.00971927
4.68 0.00606812
4.69 0.00236824
4.7 -0.00141665
4.71 -0.00532089
4.72 -0.00939071
4.73 -0.0136577
4.74 -0.0181314
4.75 -0.0228282
4.76 -0.0277698
4.77 -0.0329794
4.78 -0.038427
4.79 -0.0441044
4.8 -0.0499989
4.81 -0.0561181
4.82 -0.0624037
4.83 -0.0688267
4.84 -0.0753546
4.85 -0.0819566
4.86 -0.088584
4.87 -0.0951967
4.88 -0.101757
4.89 -0.108219
4.9 -0.114542
4.91 -0.120702
4.92 -0.126672
4.93 -0.132418
4.94 -0.137902
4.95 -0.143136
4.96 -0.148112
4.97 -0.152824
4.98 -0.157235
4.99 -0.161391
5 -0.165301
5.01 -0.168975
5.02 -0.172403
5.03 -0.175619
5.04 -0.178647
5.05 -0.1815
5.06 -0.184176
5.07 -0.186688
5.08 -0.189054
5.09 -0.191275
5.1 -0.193342
5.11 -0.195233
5.12 -0.196954
5.13 -0.198486
5.14 -0.199807
5.15 -0.200854
5.16 -0.20163
5.17 -0.202105
5.18 -0.202249
5.19 -0.20198
5.2 -0.201299
5.21 -0.200191
5.22 -0.198635
5.23 -0.196569
5.24 -0.193987
5.25 -0.190919
5.26 -0.18737
5.27 -0.183329
5.28 -0.178791
5.29 -0.173838
5.3 -0.168506
5.31 -0.162839
5.32 -0.156853
5.33 -0.150655
5.34 -0.144307
5.35 -0.137873
5.36 -0.131423
5.37 -0.125035
5.38 -0.118771
5.39 -0.112692
5.4 -0.106877
5.41 -0.101381
5.42 -0.0962243
5.43 -0.091438
5.44 -0.0870645
5.45 -0.0831425
5.46 -0.079628
5.47 -0.0765117
5.48 -0.0737789
5.49 -0.0714474
5.5 -0.0694241
5.51 -0.0676665
5.52 -0.066127
5.53 -0.0647689
5.54 -0.0635145
5.55 -0.0623051
5.56 -0.0610882
5.57 -0.0598046
5.58 -0.058402
5.59 -0.0568468
5.6 -0.0551073
5.61 -0.0531476
5.62 -0.0509365
5.63 -0.0484922
5.64 -0.0458179
5.65 -0.0429225
5.66 -0.0398015
5.67 -0.0365152
5.68 -0.0330977
5.69 -0.0295877
5.7 -0.0260273
5.71 -0.0224734
5.72 -0.0189734
5.73 -0.0155727
5.74 -0.0123323
5.75 -0.00929649
5.76 -0.00649007
5.77 -0.00394291
5.78 -0.00169484
5.79 0.00021759
5.8 0.00181691
5.81 0.00310122
5.82 0.00407152
5.83 0.00470099
5.84 0.00505373
5.85 0.00515306
5.86 0.0050263
5.87 0.0046823
5.88 0.00417936
5.89 0.00355666
5.9 0.00284809
5.91 0.00208476
5.92 0.0013047
5.93 0.000538796
5.94 -0.000188364
5.95 -0.000851503
5.96 -0.00142673
5.97 -0.00190881
5.98 -0.00228933
5.99 -0.00256175
6 -0.00270987
6.01 -0.00275071
6.02 -0.00268728
6.03 -0.00252367
6.04 -0.00225205
6.05 -0.00188741
6.06 -0.001435
6.07 -0.000895923
6.08 -0.00026052
6.09 0.000473403
6.1 0.00130732
6.11 0.00225127
6.12 0.00332568
6.13 0.00455602
6.14 0.00594713
6.15 0.0075185
6.16 0.00929393
6.17 0.0113258
6.18 0.0136039
6.19 0.0161461
6.2 0.0189679
6.21 0.0221224
6.22 0.0255858
6.23 0.0293534
6.24 0.0334228
6.25 0.0378131
6.26 0.0424979
6.27 0.0474378
6.28 0.0526071
6.29 0.0579841
6.3 0.0635341
6.31 0.0691973
6.32 0.074931
6.33 0.0806904
6.34 0.0864199
6.35 0.0920723
6.36 0.0976036
6.37 0.102972
6.38 0.108106
6.39 0.112991
6.4 0.117602
6.41 0.121916
6.42 0.125883
6.43 0.1295
6.44 0.132783
6.45 0.135732
6.46 0.138336
6.47 0.140592
6.48 0.142552
6.49 0.144234
6.5 0.145655
6.51 0.146814
6.52 0.147771
6.53 0.14855
6.54 0.149171
6.55 0.149641
6.56 0.149995
6.57 0.150249
6.58 0.150414
6.59 0.150489
6.6 0.150478
6.61 0.150386
6.62 0.150205
6.63 0.149921
6.64 0.149514
6.65 0.148981
6.66 0.148304
6.67 0.147465
6.68 0.146423
6.69 0.145185
6.7 0.143738
6.71 0.142071
6.72 0.140142
6.73 0.137974
6.74 0.135571
6.75 0.132936
6.76 0.130055
6.77 0.126952
6.78 0.123657
6.79 0.120189
6.8 0.116565
6.81 0.11281
6.82 0.108967
6.83 0.105067
6.84 0.101139
6.85 0.0972206
6.86 0.0933438
6.87 0.0895376
6.88 0.0858294
6.89 0.082265
6.9 0.0788541
6.91 0.0756131
6.92 0.072558
6.93 0.0697224
6.94 0.0671079
6.95 0.0647078
6.96 0.062524
6.97 0.0605688
6.98 0.0588448
6.99 0.0573238
7 0.055997
7.01 0.0548573
7.02 0.0539093
7.03 0.0531141
7.04 0.0524565
7.05 0.0519204
7.06 0.0515017
7.07 0.0511678
7.08 0.0508992
7.09 0.0506782
7.1 0.050488
7.11 0.050306
7.12 0.0501125
7.13 0.0498897
7.14 0.0496153
7.15 0.0492664
7.16 0.0488305
7.17 0.048291
7.18 0.0476285
7.19 0.0468107
7.2 0.0458406
7.21 0.0447061
7.22 0.0433968
7.23 0.0418767
7.24 0.0401633
7.25 0.0382564
7.26 0.036156
7.27 0.0338454
7.28 0.0313419
7.29 0.028666
7.3 0.0258308
7.31 0.0228442
7.32 0.0197257
7.33 0.0165104
7.34 0.0132222
7.35 0.00988617
7.36 0.00653118
7.37 0.00318963
7.38 -0.000111903
7.39 -0.00334782
7.4 -0.00647768
7.41 -0.00948935
7.42 -0.012366
7.43 -0.0150927
7.44 -0.0176404
7.45 -0.0200102
7.46 -0.0222092
7.47 -0.0242399
7.48 -0.026099
7.49 -0.0277957
7.5 -0.0293599
7.51 -0.0308094
7.52 -0.0321624
7.53 -0.0334368
7.54 -0.0346669
7.55 -0.0358753
7.56 -0.0370833
7.57 -0.0383162
7.58 -0.0395903
7.59 -0.0409185
7.6 -0.0423103
7.61 -0.0437787
7.62 -0.0453198
7.63 -0.0469251
7.64 -0.0485851
7.65 -0.0502879
7.66 -0.0520124
7.67 -0.0537336
7.68 -0.0554275
7.69 -0.0570661
7.7 -0.0586102
7.71 -0.0600416
7.72 -0.0613355
7.73 -0.0624692
7.74 -0.0633939
7.75 -0.0641179
7.76 -0.0646331
7.77 -0.0649347
7.78 -0.0650006
7.79 -0.0648517
7.8 -0.064512
7.81 -0.064
7.82 -0.0633302
7.83 -0.0625339
7.84 -0.0616553
7.85 -0.0607284
7.86 -0.0597888
7.87 -0.0588799
7.88 -0.0580361
7.89 -0.0572889
7.9 -0.0566665
7.91 -0.0562187
7.92 -0.0559447
7.93 -0.0558548
7.94 -0.055955
7.95 -0.056265
7.96 -0.0567638
7.97 -0.0574272
7.98 -0.0582351
7.99 -0.0591686
8 -0.0601935
8.01 -0.0612664
8.02 -0.0623527
8.03 -0.0634148
8.04 -0.0644067
8.05 -0.0653001
8.06 -0.0660662
8.07 -0.0666801
8.08 -0.0670939
8.09 -0.0673186
8.1 -0.0673502
8.11 -0.0671899
8.12 -0.0668269
8.13 -0.0662915
8.14 -0.065615
8.15 -0.0648249
8.16 -0.06395
8.17 -0.0630326
8.18 -0.0621168
8.19 -0.0612407
8.2 -0.0604456
8.21 -0.0597825
8.22 -0.0592706
8.23 -0.0589352
8.24 -0.0587955
8.25 -0.0588971
8.26 -0.059213
8.27 -0.0597369
8.28 -0.0604559
8.29 -0.0613663
8.3 -0.0624225
8.31 -0.0635806
8.32 -0.0647994
8.33 -0.0660312
8.34 -0.0672176
8.35 -0.0683087
8.36 -0.069256
8.37 -0.0700045
8.38 -0.0704835
8.39 -0.0706822
8.4 -0.070571
8.41 -0.0701278
8.42 -0.0692842
8.43 -0.0680891
8.44 -0.0665512
8.45 -0.0646864
8.46 -0.0624881
8.47 -0.0600176
8.48 -0.0573298
8.49 -0.0544718
8.5 -0.0514906
8.51 -0.0484513
8.52 -0.0454183
8.53 -0.0424461
8.54 -0.039593
8.55 -0.0369285
8.56 -0.0344778
8.57 -0.0322747
8.58 -0.0303449
8.59 -0.0287533
8.6 -0.0274619
8.61 -0.0264665
8.62 -0.0257547
8.63 -0.0253337
8.64 -0.0251495
8.65 -0.0251547
8.66 -0.0253083
8.67 -0.0255698
8.68 -0.0258833
8.69 -0.0261948
8.7 -0.0264594
8.71 -0.0266308
8.72 -0.0266563
8.73 -0.0265191
8.74 -0.0261977
8.75 -0.0256787
8.76 -0.0249248
8.77 -0.0239739
8.78 -0.0228406
8.79 -0.0215471
8.8 -0.020111
8.81 -0.0185846
8.82 -0.0170141
8.83 -0.0154437
8.84 -0.0139264
8.85 -0.0125164
8.86 -0.011252
8.87 -0.0101717
8.88 -0.00931872
8.89 -0.00874317
8.9 -0.00843448
8.91 -0.00840059
8.92 -0.00864056
8.93 -0.00918314
8.94 -0.00996241
8.95 -0.0109476
8.96 -0.0121005
8.97 -0.0133847
8.98 -0.0147311
8.99 -0.0160802
9 -0.0173755
9.01 -0.0185465
9.02 -0.0195279
9.03 -0.0202795
9.04 -0.0207568
9.05 -0.020908
9.06 -0.0206733
9.07 -0.0200738
9.08 -0.0191019
9.09 -0.0177599
9.1 -0.0160085
9.11 -0.013932
9.12 -0.0115651
9.13 -0.00895073
9.14 -0.00612093
9.15 -0.00315661
9.16 -0.000124129
9.17 0.002916
9.18 0.00589422
9.19 0.00874184
9.2 0.0114115
9.21 0.0138569
9.22 0.016026
9.23 0.0178622
9.24 0.0193791
9.25 0.0205684
9.26 0.0214308
9.27 0.0219327
9.28 0.0221495
9.29 0.0221135
9.3 0.0218647
9.31 0.0214347
9.32 0.0208974
9.33 0.0203126
9.34 0.0197351
9.35 0.0192288
9.36 0.0188538
9.37 0.01865
9.38 0.0186568
9.39 0.0189182
9.4 0.0194801
9.41 0.0203258
9.42 0.0214582
9.43 0.0228727
9.44 0.0245903
9.45 0.026542
9.46 0.0286948
9.47 0.0310099
9.48 0.0334525
9.49 0.0359578
9.5 0.0384734
9.51 0.0409513
9.52 0.0433345
9.53 0.0455742
9.54 0.0476416
9.55 0.0495075
9.56 0.051139
9.57 0.052505
9.58 0.0536285
9.59 0.0545153
9.6 0.0551777
9.61 0.0556119
9.62 0.0558818
9.63 0.0560229
9.64 0.0560752
9.65 0.0560813
9.66 0.0560963
9.67 0.0561649
9.68 0.0563284
9.69 0.0566393
9.7 0.0571337
9.71 0.057826
9.72 0.0587335
9.73 0.0598761
9.74 0.0612681
9.75 0.0628737
9.76 0.064674
9.77 0.0666437
9.78 0.068762
9.79 0.070963
9.8 0.0732004
9.81 0.0754246
9.82 0.0775689
9.83 0.0795801
9.84 0.0814103
9.85 0.0830123
9.86 0.0843153
9.87 0.0852805
9.88 0.0858993
9.89 0.0861505
9.9 0.0860018
9.91 0.0854254
9.92 0.0844701
9.93 0.0831503
9.94 0.0814848
9.95 0.0794634
9.96 0.0771728
9.97 0.0746536
9.98 0.0719493
9.99 0.0690933
10 0.066152
10.01 0.0631741
10.02 0.0602017
10.03 0.0572808
10.04 0.0544502
10.05 0.051733
10.06 0.0491501
10.07 0.046724
10.08 0.0444717
10.09 0.042376
10.1 0.0404299
10.11 0.0386223
10.12 0.036949
10.13 0.0353677
10.14 0.0338532
10.15 0.0323786
10.16 0.0309143
10.17 0.029428
10.18 0.0278944
10.19 0.0262908
10.2 0.0245881
10.21 0.0227709
10.22 0.0208362
10.23 0.0187794
10.24 0.0165945
10.25 0.0142819
10.26 0.0118656
10.27 0.00936056
10.28 0.00678433
10.29 0.00415489
10.3 0.00150511
10.31 -0.00114099
10.32 -0.00375942
10.33 -0.00631732
10.34 -0.00879592
10.35 -0.0111783
10.36 -0.0134491
10.37 -0.015584
10.38 -0.0175772
10.39 -0.0194341
10.4 -0.0211554
10.41 -0.0227386
10.42 -0.0241869
10.43 -0.0255252
10.44 -0.0267667
10.45 -0.0279252
10.46 -0.0290097
10.47 -0.0300471
10.48 -0.0310516
10.49 -0.0320361
10.5 -0.0330112
10.51 -0.0339867
10.52 -0.0349669
10.53 -0.0359529
10.54 -0.0369422
10.55 -0.0379276
10.56 -0.0388994
10.57 -0.0398458
10.58 -0.0407496
10.59 -0.0415895
10.6 -0.0423537
10.61 -0.0430259
10.62 -0.0435886
10.63 -0.0440103
10.64 -0.0442961
10.65 -0.0444382
10.66 -0.0444319
10.67 -0.0442567
10.68 -0.0439338
10.69 -0.0434757
10.7 -0.0428949
10.71 -0.0421995
10.72 -0.0414172
10.73 -0.0405777
10.74 -0.0397064
10.75 -0.0388312
10.76 -0.0379852
10.77 -0.0371943
10.78 -0.0364834
10.79 -0.0358767
10.8 -0.0354115
10.81 -0.0350864
10.82 -0.0349112
10.83 -0.0348906
10.84 -0.0350451
10.85 -0.0353498
10.86 -0.0357892
10.87 -0.036347
10.88 -0.0370096
10.89 -0.0377445
10.9 -0.0385179
10.91 -0.0393007
10.92 -0.0400594
10.93 -0.0407563
10.94 -0.0413659
10.95 -0.0418622
10.96 -0.0422196
10.97 -0.0423976
10.98 -0.0424037
10.99 -0.0422305
11 -0.0418759
11.01 -0.0413201
11.02 -0.0405958
11.03 -0.0397229
11.04 -0.0387221
11.05 -0.0376113
11.06 -0.0364285
11.07 -0.0352113
11.08 -0.0339926
11.09 -0.0328094
11.1 -0.0317028
11.11 -0.0306986
11.12 -0.0298238
11.13 -0.0291049
11.14 -0.0285833
11.15 -0.0282483
11.16 -0.0281057
11.17 -0.0281555
11.18 -0.0284162
11.19 -0.0288503
11.2 -0.0294352
11.21 -0.0301469
11.22 -0.0309639
11.23 -0.0318444
11.24 -0.0327484
11.25 -0.0336403
11.26 -0.0344788
11.27 -0.0352197
11.28 -0.0358362
11.29 -0.0362994
11.3 -0.0365797
11.31 -0.0366307
11.32 -0.0364645
11.33 -0.0360735
11.34 -0.0354557
11.35 -0.0345848
11.36 -0.0335009
11.37 -0.0322249
11.38 -0.0307785
11.39 -0.0291758
11.4 -0.0274583
11.41 -0.0256665
11.42 -0.023834
11.43 -0.0219967
11.44 -0.0201956
11.45 -0.0184619
11.46 -0.0168245
11.47 -0.0153126
11.48 -0.0139673
11.49 -0.0127871
11.5 -0.011783
11.51 -0.0109615
11.52 -0.0103497
11.53 -0.00991927
11.54 -0.00965788
11.55 -0.00955225
11.56 -0.0095981
11.57 -0.00976543
11.58 -0.0100247
11.59 -0.0103528
11.6 -0.0107278
11.61 -0.0111231
11.62 -0.0115136
11.63 -0.01188
11.64 -0.012204
11.65 -0.0124637
11.66 -0.0126557
11.67 -0.0127738
11.68 -0.0128156
11.69 -0.0127715
11.7 -0.0126569
11.71 -0.0124808
11.72 -0.0122539
11.73 -0.011986
11.74 -0.0116957
11.75 -0.0113998
11.76 -0.0111136
11.77 -0.0108539
11.78 -0.0106378
11.79 -0.0104741
11.8 -0.0103722
11.81 -0.0103408
11.82 -0.0103922
11.83 -0.0105177
11.84 -0.0107148
11.85 -0.0109784
11.86 -0.0113081
11.87 -0.0116841
11.88 -0.0120932
11.89 -0.0125212
11.9 -0.012952
11.91 -0.0133668
11.92 -0.0137504
