[DEFAULT]

version = diffpy.pdfgetx-2.2.1

# input and output specifications
dataformat = twotheta
inputfile = Synthetic_CSH_CSH_pdf_ramp_800_05_normalized.chi
backgroundfiles = quartz_030degC_normalized.chi
outputtype = gr

# PDF calculation setup
mode = xray
wavelength = 0.2113
twothetazero = 0
composition = CaO SiO2
bgscales = 1.0
rpoly = 0.9
qmaxinst = 23.7031
qmin = 0.5
qmax = 20
rmin = 0
rmax = 60
rstep = 0.01

# End of config --------------------------------------------------------------

#### start data
#S 1
#L r(Å)  G(Å$^{-2}$)
0 0
0.01 -0.00179906
0.02 -0.00353649
0.03 -0.00515984
0.04 -0.0066197
0.05 -0.00784084
0.06 -0.00879581
0.07 -0.00946277
0.08 -0.00981911
0.09 -0.00982405
0.1 -0.00947397
0.11 -0.00880241
0.12 -0.00782628
0.13 -0.00656172
0.14 -0.0050322
0.15 -0.00331523
0.16 -0.00146263
0.17 0.000468332
0.18 0.00240866
0.19 0.004284
0.2 0.00602951
0.21 0.00758174
0.22 0.00884245
0.23 0.00977037
0.24 0.0103295
0.25 0.0104826
0.26 0.0101656
0.27 0.00936436
0.28 0.0081144
0.29 0.00643062
0.3 0.00432632
0.31 0.00182708
0.32 -0.000959924
0.33 -0.00396167
0.34 -0.00709385
0.35 -0.0102511
0.36 -0.0133116
0.37 -0.0161652
0.38 -0.0186982
0.39 -0.0207288
0.4 -0.0221665
0.41 -0.0229233
0.42 -0.0229028
0.43 -0.021941
0.44 -0.0199618
0.45 -0.0169823
0.46 -0.0129712
0.47 -0.00787137
0.48 -0.00162408
0.49 0.00561053
0.5 0.0137714
0.51 0.0227795
0.52 0.0326235
0.53 0.0430474
0.54 0.0539059
0.55 0.0650396
0.56 0.0762676
0.57 0.0873727
0.58 0.0981673
0.59 0.108466
0.6 0.118014
0.61 0.12661
0.62 0.134148
0.63 0.140482
0.64 0.14542
0.65 0.148739
0.66 0.150519
0.67 0.150707
0.68 0.149267
0.69 0.145961
0.7 0.141072
0.71 0.134658
0.72 0.126799
0.73 0.117441
0.74 0.106851
0.75 0.0952125
0.76 0.0826784
0.77 0.0693596
0.78 0.0554641
0.79 0.0412095
0.8 0.0267584
0.81 0.0122735
0.82 -0.00206568
0.83 -0.0161274
0.84 -0.029795
0.85 -0.0429632
0.86 -0.0554541
0.87 -0.0672874
0.88 -0.0784217
0.89 -0.0888325
0.9 -0.0984191
0.91 -0.107263
0.92 -0.115413
0.93 -0.122903
0.94 -0.129727
0.95 -0.135957
0.96 -0.141691
0.97 -0.146984
0.98 -0.151874
0.99 -0.1564
1 -0.160649
1.01 -0.164661
1.02 -0.168465
1.03 -0.172065
1.04 -0.175507
1.05 -0.178799
1.06 -0.181946
1.07 -0.184928
1.08 -0.187755
1.09 -0.190427
1.1 -0.192938
1.11 -0.195273
1.12 -0.197436
1.13 -0.199448
1.14 -0.201322
1.15 -0.203076
1.16 -0.20474
1.17 -0.206365
1.18 -0.207993
1.19 -0.209676
1.2 -0.211491
1.21 -0.213479
1.22 -0.215696
1.23 -0.218187
1.24 -0.22104
1.25 -0.224254
1.26 -0.227835
1.27 -0.231777
1.28 -0.236087
1.29 -0.240702
1.3 -0.245525
1.31 -0.250462
1.32 -0.255387
1.33 -0.260118
1.34 -0.264493
1.35 -0.268323
1.36 -0.271398
1.37 -0.273338
1.38 -0.274042
1.39 -0.273293
1.4 -0.270878
1.41 -0.266324
1.42 -0.259622
1.43 -0.250677
1.44 -0.239369
1.45 -0.225384
1.46 -0.208746
1.47 -0.18964
1.48 -0.168134
1.49 -0.144234
1.5 -0.118039
1.51 -0.0900261
1.52 -0.0604795
1.53 -0.0297178
1.54 0.00193314
1.55 0.0338953
1.56 0.0657283
1.57 0.096973
1.58 0.126954
1.59 0.15525
1.6 0.18143
1.61 0.205058
1.62 0.225404
1.63 0.242119
1.64 0.255092
1.65 0.264064
1.66 0.268597
1.67 0.268327
1.68 0.263655
1.69 0.254608
1.7 0.241218
1.71 0.223152
1.72 0.201277
1.73 0.175899
1.74 0.147382
1.75 0.115823
1.76 0.0820429
1.77 0.0465912
1.78 0.00996793
1.79 -0.0273312
1.8 -0.0646865
1.81 -0.101574
1.82 -0.137528
1.83 -0.172014
1.84 -0.204489
1.85 -0.234772
1.86 -0.262581
1.87 -0.287643
1.88 -0.309408
1.89 -0.328178
1.9 -0.343919
1.91 -0.356649
1.92 -0.36605
1.93 -0.372598
1.94 -0.376527
1.95 -0.378034
1.96 -0.377149
1.97 -0.374233
1.98 -0.369666
1.99 -0.363694
2 -0.3565
2.01 -0.348301
2.02 -0.339404
2.03 -0.329974
2.04 -0.320139
2.05 -0.309975
2.06 -0.299588
2.07 -0.288997
2.08 -0.278189
2.09 -0.267074
2.1 -0.255596
2.11 -0.24366
2.12 -0.231151
2.13 -0.217861
2.14 -0.203663
2.15 -0.18848
2.16 -0.172198
2.17 -0.154649
2.18 -0.1357
2.19 -0.115444
2.2 -0.0938802
2.21 -0.0710257
2.22 -0.0468344
2.23 -0.0216137
2.24 0.004466
2.25 0.0311965
2.26 0.0583533
2.27 0.0855693
2.28 0.112529
2.29 0.138906
2.3 0.164234
2.31 0.188142
2.32 0.210352
2.33 0.230534
2.34 0.248219
2.35 0.262976
2.36 0.274805
2.37 0.283508
2.38 0.288858
2.39 0.290345
2.4 0.288392
2.41 0.283017
2.42 0.274291
2.43 0.261905
2.44 0.246465
2.45 0.228267
2.46 0.207587
2.47 0.184553
2.48 0.159673
2.49 0.133439
2.5 0.10624
2.51 0.0784574
2.52 0.0505511
2.53 0.0229466
2.54 -0.00399616
2.55 -0.0299109
2.56 -0.0542973
2.57 -0.0770473
2.58 -0.0979456
2.59 -0.116821
2.6 -0.133228
2.61 -0.147362
2.62 -0.159247
2.63 -0.168911
2.64 -0.17622
2.65 -0.18142
2.66 -0.184794
2.67 -0.186535
2.68 -0.186787
2.69 -0.1858
2.7 -0.183958
2.71 -0.181521
2.72 -0.178745
2.73 -0.175911
2.74 -0.17329
2.75 -0.171095
2.76 -0.169514
2.77 -0.16884
2.78 -0.16911
2.79 -0.170398
2.8 -0.172752
2.81 -0.176297
2.82 -0.180944
2.83 -0.186564
2.84 -0.193055
2.85 -0.200326
2.86 -0.208201
2.87 -0.216427
2.88 -0.224802
2.89 -0.233103
2.9 -0.241039
2.91 -0.248403
2.92 -0.254977
2.93 -0.260552
2.94 -0.264731
2.95 -0.267477
2.96 -0.268659
2.97 -0.268155
2.98 -0.265677
2.99 -0.261252
3 -0.254957
3.01 -0.246804
3.02 -0.236724
3.03 -0.224768
3.04 -0.211222
3.05 -0.196228
3.06 -0.179925
3.07 -0.162423
3.08 -0.144097
3.09 -0.125169
3.1 -0.10587
3.11 -0.0864479
3.12 -0.0671817
3.13 -0.0482961
3.14 -0.030003
3.15 -0.0126043
3.16 0.00374188
3.17 0.0189319
3.18 0.0328455
3.19 0.0452919
3.2 0.0561704
3.21 0.065587
3.22 0.0735522
3.23 0.0800683
3.24 0.0850866
3.25 0.0888981
3.26 0.0916354
3.27 0.0934531
3.28 0.0944409
3.29 0.0949177
3.3 0.0950929
3.31 0.0951739
3.32 0.0954049
3.33 0.0960174
3.34 0.0971975
3.35 0.0991256
3.36 0.102041
3.37 0.106131
3.38 0.111422
3.39 0.118
3.4 0.125963
3.41 0.135474
3.42 0.146343
3.43 0.158528
3.44 0.171955
3.45 0.186677
3.46 0.202385
3.47 0.218911
3.48 0.236078
3.49 0.25372
3.5 0.271568
3.51 0.289387
3.52 0.306958
3.53 0.324015
3.54 0.340295
3.55 0.355643
3.56 0.369874
3.57 0.382773
3.58 0.394031
3.59 0.403698
3.6 0.41168
3.61 0.417905
3.62 0.422051
3.63 0.424364
3.64 0.424872
3.65 0.423612
3.66 0.420459
3.67 0.415622
3.68 0.409283
3.69 0.401555
3.7 0.392482
3.71 0.382209
3.72 0.370982
3.73 0.358937
3.74 0.346193
3.75 0.33285
3.76 0.319112
3.77 0.305087
3.78 0.290874
3.79 0.276554
3.8 0.262222
3.81 0.24793
3.82 0.233722
3.83 0.21964
3.84 0.205696
3.85 0.191889
3.86 0.178215
3.87 0.164676
3.88 0.151256
3.89 0.137932
3.9 0.124692
3.91 0.111528
3.92 0.0984434
3.93 0.0854341
3.94 0.0725137
3.95 0.0597049
3.96 0.0470696
3.97 0.0346364
3.98 0.0224607
3.99 0.0106075
4 -0.000794356
4.01 -0.0116789
4.02 -0.0219776
4.03 -0.0316009
4.04 -0.0403931
4.05 -0.0482422
4.06 -0.0551308
4.07 -0.060983
4.08 -0.0656887
4.09 -0.069083
4.1 -0.0712652
4.11 -0.0722107
4.12 -0.0719108
4.13 -0.0701824
4.14 -0.0672483
4.15 -0.0631594
4.16 -0.0579793
4.17 -0.0516793
4.18 -0.044447
4.19 -0.0364351
4.2 -0.0277643
4.21 -0.0185334
4.22 -0.00890403
4.23 0.00094324
4.24 0.010869
4.25 0.0207282
4.26 0.0303495
4.27 0.0396212
4.28 0.04843
4.29 0.0566739
4.3 0.0641484
4.31 0.0708767
4.32 0.0768059
4.33 0.0818975
4.34 0.0860262
4.35 0.0892555
4.36 0.091635
4.37 0.0931932
4.38 0.0939141
4.39 0.0938636
4.4 0.0931704
4.41 0.0919092
4.42 0.0901449
4.43 0.0879459
4.44 0.0854561
4.45 0.0827631
4.46 0.0799528
4.47 0.0771146
4.48 0.0743393
4.49 0.0716965
4.5 0.0692482
4.51 0.0670842
4.52 0.0652346
4.53 0.0637225
4.54 0.062572
4.55 0.0618293
4.56 0.0614996
4.57 0.0615483
4.58 0.0619634
4.59 0.0627392
4.6 0.0638705
4.61 0.0652851
4.62 0.0669472
4.63 0.0688183
4.64 0.0708763
4.65 0.0730463
4.66 0.0752838
4.67 0.0775442
4.68 0.0797747
4.69 0.0819262
4.7 0.083957
4.71 0.0858255
4.72 0.087471
4.73 0.0888475
4.74 0.0899343
4.75 0.0906953
4.76 0.0910788
4.77 0.0910163
4.78 0.0905194
4.79 0.0895577
4.8 0.0881005
4.81 0.086036
4.82 0.0834175
4.83 0.0802216
4.84 0.076427
4.85 0.0719367
4.86 0.0667869
4.87 0.0609887
4.88 0.0545345
4.89 0.0473655
4.9 0.0394896
4.91 0.0309647
4.92 0.0218043
4.93 0.0120013
4.94 0.00154402
4.95 -0.00946386
4.96 -0.0209834
4.97 -0.032972
4.98 -0.0454331
4.99 -0.0582387
5 -0.071327
5.01 -0.084632
5.02 -0.0980933
5.03 -0.111614
5.04 -0.125115
5.05 -0.13852
5.06 -0.151734
5.07 -0.16467
5.08 -0.177268
5.09 -0.189463
5.1 -0.201162
5.11 -0.212262
5.12 -0.222762
5.13 -0.232617
5.14 -0.241779
5.15 -0.250105
5.16 -0.257676
5.17 -0.264472
5.18 -0.270483
5.19 -0.275603
5.2 -0.279908
5.21 -0.283433
5.22 -0.286191
5.23 -0.288139
5.24 -0.289314
5.25 -0.289797
5.26 -0.289618
5.27 -0.28878
5.28 -0.287281
5.29 -0.285225
5.3 -0.282645
5.31 -0.279569
5.32 -0.275967
5.33 -0.271942
5.34 -0.267521
5.35 -0.262729
5.36 -0.25755
5.37 -0.25204
5.38 -0.24623
5.39 -0.240137
5.4 -0.233754
5.41 -0.227104
5.42 -0.220219
5.43 -0.21311
5.44 -0.20578
5.45 -0.198231
5.46 -0.190499
5.47 -0.182595
5.48 -0.174532
5.49 -0.166306
5.5 -0.157954
5.51 -0.149494
5.52 -0.140942
5.53 -0.132309
5.54 -0.123625
5.55 -0.114911
5.56 -0.106187
5.57 -0.0974766
5.58 -0.0888045
5.59 -0.08019
5.6 -0.071653
5.61 -0.0632191
5.62 -0.0549171
5.63 -0.0467535
5.64 -0.0387449
5.65 -0.0309089
5.66 -0.0232874
5.67 -0.0158676
5.68 -0.00866109
5.69 -0.00167899
5.7 0.00503653
5.71 0.0114988
5.72 0.0177059
5.73 0.0236492
5.74 0.0292945
5.75 0.0346383
5.76 0.0396904
5.77 0.044442
5.78 0.0488669
5.79 0.0529358
5.8 0.056672
5.81 0.0600651
5.82 0.0631001
5.83 0.0657156
5.84 0.0679543
5.85 0.0698071
5.86 0.0712659
5.87 0.0722702
5.88 0.0728575
5.89 0.0730369
5.9 0.0728096
5.91 0.072143
5.92 0.0710573
5.93 0.0695922
5.94 0.0677641
5.95 0.0655768
5.96 0.0630436
5.97 0.0602307
5.98 0.0571721
5.99 0.0539033
6 0.0504503
6.01 0.0468864
6.02 0.0432584
6.03 0.0396141
6.04 0.0360133
6.05 0.0325081
6.06 0.0291449
6.07 0.0259694
6.08 0.0230503
6.09 0.0204274
6.1 0.0181189
6.11 0.0161541
6.12 0.0145778
6.13 0.0134292
6.14 0.0126784
6.15 0.0123281
6.16 0.0123804
6.17 0.0128718
6.18 0.0137264
6.19 0.0149194
6.2 0.0164206
6.21 0.0182269
6.22 0.0202622
6.23 0.0224765
6.24 0.0248244
6.25 0.027262
6.26 0.0297303
6.27 0.0321774
6.28 0.0345581
6.29 0.0368207
6.3 0.0389114
6.31 0.0408078
6.32 0.0424796
6.33 0.0438966
6.34 0.045002
6.35 0.0458193
6.36 0.0463409
6.37 0.0465641
6.38 0.0464519
6.39 0.0460477
6.4 0.0453711
6.41 0.0444386
6.42 0.043249
6.43 0.0418375
6.44 0.0402429
6.45 0.0384906
6.46 0.0366004
6.47 0.0345982
6.48 0.0325214
6.49 0.0303936
6.5 0.0282363
6.51 0.0260714
6.52 0.0239197
6.53 0.0217963
6.54 0.0197142
6.55 0.0176936
6.56 0.0157387
6.57 0.013856
6.58 0.0120522
6.59 0.0103426
6.6 0.0087308
6.61 0.00721757
6.62 0.00580969
6.63 0.0045221
6.64 0.00337059
6.65 0.00235444
6.66 0.00148605
6.67 0.000783
6.68 0.000285046
6.69 -1.34863e-05
6.7 -9.39626e-05
6.71 6.30796e-05
6.72 0.000516578
6.73 0.00125795
6.74 0.00230129
6.75 0.00366462
6.76 0.00539974
6.77 0.00750879
6.78 0.00998213
6.79 0.0128269
6.8 0.0160696
6.81 0.019723
6.82 0.0237438
6.83 0.0281215
6.84 0.0328484
6.85 0.0379391
6.86 0.0433224
6.87 0.0489701
6.88 0.0548506
6.89 0.0609527
6.9 0.0672097
6.91 0.0735792
6.92 0.0800214
6.93 0.0864952
6.94 0.0929521
6.95 0.0993519
6.96 0.105657
6.97 0.111823
6.98 0.117804
6.99 0.123584
7 0.129138
7.01 0.134435
7.02 0.13942
7.03 0.144112
7.04 0.148498
7.05 0.152565
7.06 0.156257
7.07 0.159606
7.08 0.162612
7.09 0.16527
7.1 0.167538
7.11 0.169428
7.12 0.170956
7.13 0.172115
7.14 0.172875
7.15 0.173215
7.16 0.173165
7.17 0.172714
7.18 0.171843
7.19 0.170496
7.2 0.168716
7.21 0.166497
7.22 0.16383
7.23 0.160641
7.24 0.156986
7.25 0.15287
7.26 0.148295
7.27 0.143221
7.28 0.137682
7.29 0.13172
7.3 0.125354
7.31 0.118585
7.32 0.111442
7.33 0.103993
7.34 0.0962799
7.35 0.0883411
7.36 0.0802144
7.37 0.0719792
7.38 0.063689
7.39 0.0553988
7.4 0.0471812
7.41 0.0390919
7.42 0.0311851
7.43 0.0235145
7.44 0.0161677
7.45 0.00918542
7.46 0.00259609
7.47 -0.0035602
7.48 -0.00921365
7.49 -0.0143148
7.5 -0.0188828
7.51 -0.0228969
7.52 -0.0263253
7.53 -0.0290942
7.54 -0.0312738
7.55 -0.032862
7.56 -0.0338603
7.57 -0.0341876
7.58 -0.0339324
7.59 -0.033112
7.6 -0.0317388
7.61 -0.0297698
7.62 -0.0272537
7.63 -0.0242347
7.64 -0.0207306
7.65 -0.016729
7.66 -0.0122436
7.67 -0.0073373
7.68 -0.00203228
7.69 0.00365808
7.7 0.00973933
7.71 0.0161352
7.72 0.0228153
7.73 0.0297466
7.74 0.03692
7.75 0.0442606
7.76 0.0517232
7.77 0.0592615
7.78 0.0668227
7.79 0.0743432
7.8 0.0817659
7.81 0.0890323
7.82 0.0960623
7.83 0.102776
7.84 0.109133
7.85 0.115071
7.86 0.120512
7.87 0.125335
7.88 0.129549
7.89 0.133104
7.9 0.135953
7.91 0.137939
7.92 0.139129
7.93 0.139504
7.94 0.139047
7.95 0.13765
7.96 0.135366
7.97 0.132242
7.98 0.128292
7.99 0.123481
8 0.117833
8.01 0.111452
8.02 0.104381
8.03 0.0966478
8.04 0.0882535
8.05 0.0793332
8.06 0.0699425
8.07 0.060138
8.08 0.0499309
8.09 0.0394362
8.1 0.028711
8.11 0.0178081
8.12 0.0067691
8.13 -0.00434302
8.14 -0.0154794
8.15 -0.0265999
8.16 -0.0376614
8.17 -0.0486232
8.18 -0.0594611
8.19 -0.0701484
8.2 -0.0806544
8.21 -0.0909353
8.22 -0.100994
8.23 -0.110813
8.24 -0.120374
8.25 -0.129617
8.26 -0.138564
8.27 -0.1472
8.28 -0.155511
8.29 -0.163439
8.3 -0.170992
8.31 -0.178168
8.32 -0.184955
8.33 -0.191308
8.34 -0.197206
8.35 -0.202675
8.36 -0.207705
8.37 -0.212275
8.38 -0.21634
8.39 -0.219954
8.4 -0.223122
8.41 -0.225849
8.42 -0.228079
8.43 -0.229892
8.44 -0.231307
8.45 -0.232342
8.46 -0.23298
8.47 -0.233277
8.48 -0.233271
8.49 -0.232991
8.5 -0.232445
8.51 -0.231664
8.52 -0.230692
8.53 -0.229553
8.54 -0.228262
8.55 -0.226827
8.56 -0.22528
8.57 -0.223631
8.58 -0.221884
8.59 -0.220026
8.6 -0.218069
8.61 -0.216006
8.62 -0.213828
8.63 -0.211504
8.64 -0.209026
8.65 -0.206384
8.66 -0.20356
8.67 -0.200518
8.68 -0.19724
8.69 -0.193726
8.7 -0.189966
8.71 -0.18594
8.72 -0.181622
8.73 -0.177042
8.74 -0.172205
8.75 -0.167121
8.76 -0.161768
8.77 -0.156205
8.78 -0.150456
8.79 -0.144546
8.8 -0.138494
8.81 -0.132348
8.82 -0.126146
8.83 -0.119921
8.84 -0.113711
8.85 -0.107555
8.86 -0.101478
8.87 -0.0955075
8.88 -0.0896704
8.89 -0.083998
8.9 -0.0784849
8.91 -0.0731365
8.92 -0.0679528
8.93 -0.0629523
8.94 -0.0580967
8.95 -0.0533691
8.96 -0.0487489
8.97 -0.0442187
8.98 -0.03974
8.99 -0.0352808
9 -0.0308115
9.01 -0.0262971
9.02 -0.0217045
9.03 -0.0170123
9.04 -0.0121989
9.05 -0.00724019
9.06 -0.00211
9.07 0.00318096
9.08 0.00863343
9.09 0.0142429
9.1 0.0200192
9.11 0.0259205
9.12 0.0319243
9.13 0.0380037
9.14 0.0441296
9.15 0.0502589
9.16 0.0563539
9.17 0.0623774
9.18 0.0682796
9.19 0.0740175
9.2 0.0795659
9.21 0.084893
9.22 0.0899587
9.23 0.0947146
9.24 0.0991721
9.25 0.103317
9.26 0.10714
9.27 0.110587
9.28 0.11371
9.29 0.116515
9.3 0.119012
9.31 0.12118
9.32 0.123063
9.33 0.124691
9.34 0.126082
9.35 0.12724
9.36 0.128187
9.37 0.128959
9.38 0.129571
9.39 0.13003
9.4 0.130338
9.41 0.130518
9.42 0.130574
9.43 0.130506
9.44 0.130292
9.45 0.129946
9.46 0.129459
9.47 0.128822
9.48 0.128004
9.49 0.127007
9.5 0.125825
9.51 0.12445
9.52 0.122856
9.53 0.121039
9.54 0.119012
9.55 0.116776
9.56 0.114328
9.57 0.111663
9.58 0.108817
9.59 0.105808
9.6 0.102653
9.61 0.0993601
9.62 0.095977
9.63 0.0925303
9.64 0.0890482
9.65 0.0855622
9.66 0.0821057
9.67 0.078706
9.68 0.0753888
9.69 0.072189
9.7 0.0691297
9.71 0.0662196
9.72 0.0634726
9.73 0.0609072
9.74 0.0585426
9.75 0.0563611
9.76 0.0543618
9.77 0.0525422
9.78 0.0509199
9.79 0.0494593
9.8 0.0481509
9.81 0.0469844
9.82 0.0459655
9.83 0.0450707
9.84 0.0442881
9.85 0.0436118
9.86 0.0430471
9.87 0.0425911
9.88 0.042239
9.89 0.0419961
9.9 0.0418766
9.91 0.041901
9.92 0.0420693
9.93 0.0423966
9.94 0.0429005
9.95 0.0436272
9.96 0.0445656
9.97 0.0457308
9.98 0.0471357
9.99 0.0488245
10 0.0507798
10.01 0.0529964
10.02 0.0554721
10.03 0.0582219
10.04 0.0612253
10.05 0.0644461
10.06 0.0678607
10.07 0.071447
10.08 0.0751725
10.09 0.0789815
10.1 0.0828321
10.11 0.0866791
10.12 0.0904617
10.13 0.0941344
10.14 0.0976498
10.15 0.100961
10.16 0.103986
10.17 0.106701
10.18 0.109078
10.19 0.111082
10.2 0.112645
10.21 0.113752
10.22 0.114413
10.23 0.114617
10.24 0.114337
10.25 0.113548
10.26 0.112308
10.27 0.110628
10.28 0.108522
10.29 0.105959
10.3 0.103026
10.31 0.0997487
10.32 0.0961562
10.33 0.0922441
10.34 0.0880767
10.35 0.0836914
10.36 0.0791165
10.37 0.074367
10.38 0.0694772
10.39 0.0644808
10.4 0.0593987
10.41 0.0542472
10.42 0.0490433
10.43 0.0438076
10.44 0.0385525
10.45 0.0332887
10.46 0.0280274
10.47 0.0227777
10.48 0.0175475
10.49 0.0123441
10.5 0.00718081
10.51 0.00206277
10.52 -0.00300263
10.53 -0.00800651
10.54 -0.0129317
10.55 -0.0177681
10.56 -0.0225097
10.57 -0.0271454
10.58 -0.0316569
10.59 -0.0360243
10.6 -0.0402497
10.61 -0.0443231
10.62 -0.0482329
10.63 -0.0519488
10.64 -0.0554888
10.65 -0.0588492
10.66 -0.0620284
10.67 -0.0650024
10.68 -0.0677947
10.69 -0.070415
10.7 -0.0728704
10.71 -0.0751557
10.72 -0.0772885
10.73 -0.0792903
10.74 -0.0811736
10.75 -0.0829457
10.76 -0.0846172
10.77 -0.0862103
10.78 -0.0877354
10.79 -0.0892006
10.8 -0.0906074
10.81 -0.091968
10.82 -0.0932843
10.83 -0.0945555
10.84 -0.0957708
10.85 -0.0969288
10.86 -0.0980215
10.87 -0.099038
10.88 -0.0999555
10.89 -0.10076
10.9 -0.101443
10.91 -0.101988
10.92 -0.102371
10.93 -0.102568
10.94 -0.102581
10.95 -0.1024
10.96 -0.102014
10.97 -0.101392
10.98 -0.10056
10.99 -0.0995202
11 -0.0982792
11.01 -0.0968203
11.02 -0.0951811
11.03 -0.0933819
11.04 -0.0914421
11.05 -0.0893737
11.06 -0.0872095
11.07 -0.0849819
11.08 -0.082717
11.09 -0.0804418
11.1 -0.0781876
11.11 -0.0759792
11.12 -0.0738391
11.13 -0.0717901
11.14 -0.0698653
11.15 -0.0680656
11.16 -0.0664017
11.17 -0.064881
11.18 -0.0635282
11.19 -0.0623256
11.2 -0.0612667
11.21 -0.060345
11.22 -0.0595633
11.23 -0.0589026
11.24 -0.0583418
11.25 -0.0578666
11.26 -0.0574647
11.27 -0.05712
11.28 -0.0568108
11.29 -0.0565231
11.3 -0.0562439
11.31 -0.0559601
11.32 -0.0556622
11.33 -0.0553434
11.34 -0.0549992
11.35 -0.0546233
11.36 -0.0542194
11.37 -0.0537903
11.38 -0.0533402
11.39 -0.0528739
11.4 -0.0524002
11.41 -0.0519277
11.42 -0.0514646
11.43 -0.0510207
11.44 -0.0506061
11.45 -0.0502258
11.46 -0.0498857
11.47 -0.0495915
11.48 -0.049352
11.49 -0.049162
11.5 -0.0490206
11.51 -0.0489257
11.52 -0.0488784
11.53 -0.048867
11.54 -0.0488836
11.55 -0.04892
11.56 -0.0489672
11.57 -0.0490135
11.58 -0.0490485
11.59 -0.0490626
11.6 -0.0490437
11.61 -0.0489806
11.62 -0.0488685
11.63 -0.0487011
11.64 -0.0484714
11.65 -0.0481676
11.66 -0.0477959
11.67 -0.047355
11.68 -0.0468453
11.69 -0.0462583
11.7 -0.0456057
11.71 -0.0448919
11.72 -0.0441206
11.73 -0.0432911
11.74 -0.0424114
11.75 -0.0414889
11.76 -0.0405279
11.77 -0.0395304
11.78 -0.0384997
11.79 -0.0374419
11.8 -0.0363594
11.81 -0.0352533
11.82 -0.0341226
11.83 -0.0329711
11.84 -0.0317989
11.85 -0.0306061
11.86 -0.0293895
11.87 -0.0281518
11.88 -0.0268935
11.89 -0.025615
11.9 -0.0243152
11.91 -0.0229967
11.92 -0.0216628
11.93 -0.0203161
11.94 -0.0189593
11.95 -0.017597
11.96 -0.0162341
11.97 -0.0148754
11.98 -0.0135257
11.99 -0.012192
12 -0.0108773
12.01 -0.00958542
12.02 -0.00831974
12.03 -0.00708717
12.04 -0.00588529
12.05 -0.00471388
12.06 -0.00357189
12.07 -0.00245967
