[DEFAULT]

version = diffpy.pdfgetx-2.2.1

# input and output specifications
dataformat = twotheta
inputfile = Synthetic_CSH_CSH_pdf_ramp_400_02_normalized.chi
backgroundfiles = quartz_030degC_normalized.chi
outputtype = gr

# PDF calculation setup
mode = xray
wavelength = 0.2113
twothetazero = 0
composition = CaO SiO2
bgscales = 1.0
rpoly = 0.9
qmaxinst = 23.7031
qmin = 0.5
qmax = 20
rmin = 0
rmax = 60
rstep = 0.01

# End of config --------------------------------------------------------------

#### start data
#S 1
#L r(Å)  G(Å$^{-2}$)
0 0
0.01 -0.00339864
0.02 -0.00667721
0.03 -0.00973376
0.04 -0.0124726
0.05 -0.0147488
0.06 -0.0165109
0.07 -0.0177189
0.08 -0.0183319
0.09 -0.0182759
0.1 -0.0175488
0.11 -0.0162189
0.12 -0.0143232
0.13 -0.0118977
0.14 -0.00899348
0.15 -0.00575823
0.16 -0.00229177
0.17 0.00129754
0.18 0.0048781
0.19 0.00831824
0.2 0.0115027
0.21 0.0143211
0.22 0.0166024
0.23 0.018284
0.24 0.0193126
0.25 0.0196342
0.26 0.0191513
0.27 0.0178549
0.28 0.0158189
0.29 0.0130813
0.3 0.00967854
0.31 0.00566864
0.32 0.00123277
0.33 -0.00350442
0.34 -0.00840398
0.35 -0.013292
0.36 -0.0179894
0.37 -0.0223336
0.38 -0.0261636
0.39 -0.0292223
0.4 -0.0314023
0.41 -0.0326017
0.42 -0.0327114
0.43 -0.0315393
0.44 -0.0290235
0.45 -0.0252273
0.46 -0.0201512
0.47 -0.013772
0.48 -0.0060786
0.49 0.00268891
0.5 0.0124083
0.51 0.0229364
0.52 0.0341725
0.53 0.045808
0.54 0.0576408
0.55 0.0694612
0.56 0.0810006
0.57 0.0920364
0.58 0.102375
0.59 0.111827
0.6 0.120112
0.61 0.127062
0.62 0.132636
0.63 0.136737
0.64 0.139225
0.65 0.139952
0.66 0.139096
0.67 0.136686
0.68 0.132769
0.69 0.127236
0.7 0.120423
0.71 0.112459
0.72 0.103486
0.73 0.0935666
0.74 0.0829633
0.75 0.0718611
0.76 0.0604136
0.77 0.0487611
0.78 0.0370638
0.79 0.0254477
0.8 0.0140089
0.81 0.00283953
0.82 -0.00797601
0.83 -0.018438
0.84 -0.028535
0.85 -0.0382703
0.86 -0.047622
0.87 -0.0566821
0.88 -0.0654965
0.89 -0.0741165
0.9 -0.0825828
0.91 -0.0909656
0.92 -0.0993107
0.93 -0.10765
0.94 -0.116004
0.95 -0.124373
0.96 -0.132738
0.97 -0.141064
0.98 -0.14929
0.99 -0.157321
1 -0.16508
1.01 -0.172468
1.02 -0.179373
1.03 -0.185582
1.04 -0.191062
1.05 -0.19571
1.06 -0.199433
1.07 -0.202015
1.08 -0.203496
1.09 -0.203882
1.1 -0.203173
1.11 -0.201312
1.12 -0.198402
1.13 -0.194621
1.14 -0.190103
1.15 -0.184992
1.16 -0.179491
1.17 -0.173871
1.18 -0.168359
1.19 -0.163195
1.2 -0.15873
1.21 -0.155125
1.22 -0.152587
1.23 -0.151298
1.24 -0.151605
1.25 -0.153485
1.26 -0.156948
1.27 -0.161999
1.28 -0.168717
1.29 -0.176932
1.3 -0.186359
1.31 -0.196769
1.32 -0.207897
1.33 -0.219371
1.34 -0.230746
1.35 -0.241618
1.36 -0.251548
1.37 -0.259849
1.38 -0.266251
1.39 -0.270345
1.4 -0.271753
1.41 -0.269695
1.42 -0.264176
1.43 -0.255073
1.44 -0.242252
1.45 -0.225308
1.46 -0.204386
1.47 -0.179879
1.48 -0.152014
1.49 -0.120957
1.5 -0.0870421
1.51 -0.0510708
1.52 -0.0135897
1.53 0.0248062
1.54 0.0634047
1.55 0.101426
1.56 0.138191
1.57 0.173029
1.58 0.20486
1.59 0.233271
1.6 0.257787
1.61 0.277929
1.62 0.292811
1.63 0.302217
1.64 0.306274
1.65 0.304892
1.66 0.29779
1.67 0.284852
1.68 0.266892
1.69 0.244242
1.7 0.217261
1.71 0.186038
1.72 0.151746
1.73 0.114997
1.74 0.0764333
1.75 0.0366476
1.76 -0.00348188
1.77 -0.0432928
1.78 -0.0821807
1.79 -0.119392
1.8 -0.15439
1.81 -0.186864
1.82 -0.216476
1.83 -0.242781
1.84 -0.265432
1.85 -0.284695
1.86 -0.300589
1.87 -0.313154
1.88 -0.322199
1.89 -0.32843
1.9 -0.33214
1.91 -0.333656
1.92 -0.333127
1.93 -0.33118
1.94 -0.328218
1.95 -0.324585
1.96 -0.320595
1.97 -0.316584
1.98 -0.312789
1.99 -0.309374
2 -0.306476
2.01 -0.30416
2.02 -0.302333
2.03 -0.300899
2.04 -0.299703
2.05 -0.298505
2.06 -0.297017
2.07 -0.294952
2.08 -0.291999
2.09 -0.287628
2.1 -0.281621
2.11 -0.273709
2.12 -0.263621
2.13 -0.250867
2.14 -0.235329
2.15 -0.217047
2.16 -0.195971
2.17 -0.171959
2.18 -0.145015
2.19 -0.115597
2.2 -0.0839497
2.21 -0.05035
2.22 -0.0150445
2.23 0.0212804
2.24 0.0581581
2.25 0.0950947
2.26 0.131442
2.27 0.166668
2.28 0.200277
2.29 0.231782
2.3 0.260427
2.31 0.28584
2.32 0.307832
2.33 0.326118
2.34 0.340226
2.35 0.349834
2.36 0.355279
2.37 0.356577
2.38 0.35373
2.39 0.346466
2.4 0.335579
2.41 0.321356
2.42 0.30413
2.43 0.283955
2.44 0.261616
2.45 0.237582
2.46 0.212282
2.47 0.186104
2.48 0.159572
2.49 0.133117
2.5 0.107101
2.51 0.0819143
2.52 0.0579281
2.53 0.0352878
2.54 0.0141748
2.55 -0.0052355
2.56 -0.0226465
2.57 -0.0382609
2.58 -0.0520894
2.59 -0.0641795
2.6 -0.0743887
2.61 -0.0830541
2.62 -0.0903385
2.63 -0.0963916
2.64 -0.101278
2.65 -0.105241
2.66 -0.108497
2.67 -0.111199
2.68 -0.113471
2.69 -0.115454
2.7 -0.11729
2.71 -0.119067
2.72 -0.120854
2.73 -0.122714
2.74 -0.12467
2.75 -0.126733
2.76 -0.128898
2.77 -0.131158
2.78 -0.133471
2.79 -0.135802
2.8 -0.13811
2.81 -0.140346
2.82 -0.142466
2.83 -0.144438
2.84 -0.146232
2.85 -0.147806
2.86 -0.149133
2.87 -0.150219
2.88 -0.151061
2.89 -0.151653
2.9 -0.151975
2.91 -0.152068
2.92 -0.151944
2.93 -0.151613
2.94 -0.151059
2.95 -0.150314
2.96 -0.149386
2.97 -0.148271
2.98 -0.146942
2.99 -0.145394
3 -0.143618
3.01 -0.141591
3.02 -0.139264
3.03 -0.136594
3.04 -0.133574
3.05 -0.130175
3.06 -0.126354
3.07 -0.122038
3.08 -0.117265
3.09 -0.112023
3.1 -0.106311
3.11 -0.100071
3.12 -0.0933863
3.13 -0.0862945
3.14 -0.078836
3.15 -0.0710331
3.16 -0.0629734
3.17 -0.0547396
3.18 -0.0464031
3.19 -0.0380409
3.2 -0.0297418
3.21 -0.0215771
3.22 -0.0136115
3.23 -0.00591076
3.24 0.00144098
3.25 0.00844822
3.26 0.0150939
3.27 0.0213756
3.28 0.027258
3.29 0.0328258
3.3 0.0381311
3.31 0.043236
3.32 0.0482103
3.33 0.0531621
3.34 0.0581907
3.35 0.063394
3.36 0.0688967
3.37 0.0748204
3.38 0.0812263
3.39 0.0881918
3.4 0.0958025
3.41 0.10418
3.42 0.113265
3.43 0.123062
3.44 0.133554
3.45 0.14479
3.46 0.156604
3.47 0.168899
3.48 0.181566
3.49 0.194486
3.5 0.207476
3.51 0.220367
3.52 0.232993
3.53 0.245139
3.54 0.256592
3.55 0.267231
3.56 0.276901
3.57 0.285421
3.58 0.292525
3.59 0.298262
3.6 0.302553
3.61 0.305343
3.62 0.306371
3.63 0.305858
3.64 0.303848
3.65 0.300394
3.66 0.295429
3.67 0.289162
3.68 0.281775
3.69 0.273405
3.7 0.264146
3.71 0.254172
3.72 0.243711
3.73 0.232915
3.74 0.221935
3.75 0.210932
3.76 0.20005
3.77 0.189403
3.78 0.179088
3.79 0.169258
3.8 0.159918
3.81 0.151101
3.82 0.142829
3.83 0.135166
3.84 0.128055
3.85 0.121444
3.86 0.11529
3.87 0.109572
3.88 0.104226
3.89 0.0991598
3.9 0.0943165
3.91 0.0896451
3.92 0.0850992
3.93 0.0806199
3.94 0.0761773
3.95 0.071752
3.96 0.0673378
3.97 0.0629406
3.98 0.0585796
3.99 0.054285
4 0.0501155
4.01 0.046122
4.02 0.0423576
4.03 0.0388851
4.04 0.0358023
4.05 0.0331913
4.06 0.0310841
4.07 0.0295392
4.08 0.0286332
4.09 0.0284732
4.1 0.029013
4.11 0.030272
4.12 0.0322579
4.13 0.0350767
4.14 0.038594
4.15 0.0427734
4.16 0.0475691
4.17 0.0529818
4.18 0.0588901
4.19 0.0651931
4.2 0.0718071
4.21 0.0786531
4.22 0.0856214
4.23 0.0926027
4.24 0.0995056
4.25 0.106232
4.26 0.112661
4.27 0.11874
4.28 0.1244
4.29 0.129578
4.3 0.134129
4.31 0.13809
4.32 0.141431
4.33 0.144127
4.34 0.146087
4.35 0.147356
4.36 0.147968
4.37 0.147933
4.38 0.147223
4.39 0.145865
4.4 0.143941
4.41 0.141483
4.42 0.138509
4.43 0.135027
4.44 0.131136
4.45 0.126876
4.46 0.122287
4.47 0.117369
4.48 0.112211
4.49 0.106851
4.5 0.101326
4.51 0.0956566
4.52 0.0898925
4.53 0.0840685
4.54 0.0782127
4.55 0.0723528
4.56 0.0665171
4.57 0.0607262
4.58 0.0549981
4.59 0.0493519
4.6 0.043809
4.61 0.0383681
4.62 0.0330347
4.63 0.0278111
4.64 0.0227126
4.65 0.0177163
4.66 0.0128136
4.67 0.00799276
4.68 0.00324535
4.69 -0.00145459
4.7 -0.00612944
4.71 -0.0108007
4.72 -0.0154946
4.73 -0.0202388
4.74 -0.0250543
4.75 -0.0299626
4.76 -0.0349897
4.77 -0.0401657
4.78 -0.0454905
4.79 -0.0509742
4.8 -0.0566234
4.81 -0.0624649
4.82 -0.0684678
4.83 -0.0746226
4.84 -0.0809153
4.85 -0.0873389
4.86 -0.0938559
4.87 -0.100434
4.88 -0.107043
4.89 -0.113647
4.9 -0.120204
4.91 -0.12668
4.92 -0.13304
4.93 -0.139243
4.94 -0.145239
4.95 -0.15102
4.96 -0.156561
4.97 -0.161841
4.98 -0.166802
4.99 -0.171475
5 -0.175856
5.01 -0.179943
5.02 -0.183705
5.03 -0.187176
5.04 -0.190378
5.05 -0.193322
5.06 -0.196002
5.07 -0.198438
5.08 -0.200659
5.09 -0.202677
5.1 -0.204491
5.11 -0.206093
5.12 -0.207506
5.13 -0.208725
5.14 -0.209739
5.15 -0.210502
5.16 -0.211026
5.17 -0.211288
5.18 -0.211263
5.19 -0.21088
5.2 -0.210135
5.21 -0.20901
5.22 -0.207476
5.23 -0.205468
5.24 -0.202968
5.25 -0.199992
5.26 -0.19653
5.27 -0.192558
5.28 -0.188049
5.29 -0.183077
5.3 -0.177663
5.31 -0.171838
5.32 -0.165597
5.33 -0.159049
5.34 -0.152252
5.35 -0.145266
5.36 -0.138152
5.37 -0.130999
5.38 -0.12388
5.39 -0.116866
5.4 -0.110041
5.41 -0.103479
5.42 -0.0972192
5.43 -0.0913102
5.44 -0.085812
5.45 -0.0807845
5.46 -0.0762003
5.47 -0.0720659
5.48 -0.0683817
5.49 -0.0651913
5.5 -0.0624013
5.51 -0.059977
5.52 -0.0578762
5.53 -0.0560798
5.54 -0.0544992
5.55 -0.0530698
5.56 -0.0517348
5.57 -0.050436
5.58 -0.0491093
5.59 -0.0477047
5.6 -0.0461797
5.61 -0.0444894
5.62 -0.0425917
5.63 -0.0404884
5.64 -0.0381723
5.65 -0.035643
5.66 -0.0328866
5.67 -0.0299562
5.68 -0.0268808
5.69 -0.0236958
5.7 -0.0204385
5.71 -0.0171676
5.72 -0.0139323
5.73 -0.0107803
5.74 -0.00777491
5.75 -0.00496551
5.76 -0.00238206
5.77 -5.89494e-05
5.78 0.00195914
5.79 0.00363044
5.8 0.0049749
5.81 0.00598811
5.82 0.00666913
5.83 0.00698789
5.84 0.00701166
5.85 0.00676514
5.86 0.00627784
5.87 0.00556045
5.88 0.00467661
5.89 0.00366978
5.9 0.00257806
5.91 0.00143757
5.92 0.000290858
5.93 -0.000828148
5.94 -0.00189197
5.95 -0.00287206
5.96 -0.00374188
5.97 -0.00449789
5.98 -0.00513209
5.99 -0.00563895
6 -0.00600226
6.01 -0.00624439
6.02 -0.0063713
6.03 -0.00639022
6.04 -0.00629625
6.05 -0.00610814
6.06 -0.00583359
6.07 -0.00547542
6.08 -0.00502525
6.09 -0.00448053
6.1 -0.00383808
6.11 -0.00308538
6.12 -0.00219788
6.13 -0.00114399
6.14 8.65277e-05
6.15 0.00151983
6.16 0.00318755
6.17 0.00515583
6.18 0.00741753
6.19 0.00999803
6.2 0.0129198
6.21 0.0162523
6.22 0.0199698
6.23 0.0240695
6.24 0.0285511
6.25 0.0334419
6.26 0.038711
6.27 0.0443106
6.28 0.0502097
6.29 0.056383
6.3 0.0627881
6.31 0.069349
6.32 0.0760121
6.33 0.0827211
6.34 0.0894071
6.35 0.0960086
6.36 0.10247
6.37 0.108738
6.38 0.114724
6.39 0.120408
6.4 0.125758
6.41 0.130747
6.42 0.135312
6.43 0.139452
6.44 0.143185
6.45 0.146514
6.46 0.149425
6.47 0.151921
6.48 0.154063
6.49 0.155876
6.5 0.157384
6.51 0.158586
6.52 0.159555
6.53 0.160319
6.54 0.160906
6.55 0.16132
6.56 0.161601
6.57 0.161767
6.58 0.161827
6.59 0.161775
6.6 0.161611
6.61 0.161333
6.62 0.160931
6.63 0.160378
6.64 0.159644
6.65 0.158722
6.66 0.15759
6.67 0.15622
6.68 0.154556
6.69 0.152615
6.7 0.150381
6.71 0.147844
6.72 0.144954
6.73 0.141751
6.74 0.138248
6.75 0.134458
6.76 0.130376
6.77 0.126044
6.78 0.121509
6.79 0.116808
6.8 0.111976
6.81 0.10706
6.82 0.102117
6.83 0.0971914
6.84 0.0923314
6.85 0.087599
6.86 0.0830237
6.87 0.0786419
6.88 0.0744857
6.89 0.0706214
6.9 0.0670417
6.91 0.0637569
6.92 0.0607764
6.93 0.0581358
6.94 0.0558191
6.95 0.0538012
6.96 0.0520707
6.97 0.0506286
6.98 0.0494622
6.99 0.0485249
7 0.0477952
7.01 0.0472544
7.02 0.0468952
7.03 0.0466717
7.04 0.0465637
7.05 0.0465522
7.06 0.0466292
7.07 0.0467673
7.08 0.046952
7.09 0.0471715
7.1 0.0474165
7.11 0.0476747
7.12 0.0479359
7.13 0.0481911
7.14 0.0484297
7.15 0.0486387
7.16 0.0488088
7.17 0.0489275
7.18 0.0489789
7.19 0.048936
7.2 0.048791
7.21 0.0485259
7.22 0.0481216
7.23 0.047533
7.24 0.0467591
7.25 0.0457842
7.26 0.0445915
7.27 0.0431405
7.28 0.0414298
7.29 0.0394648
7.3 0.0372421
7.31 0.0347461
7.32 0.0319776
7.33 0.0289726
7.34 0.0257484
7.35 0.0223221
7.36 0.0187065
7.37 0.0149585
7.38 0.0111122
7.39 0.00720424
7.4 0.00327479
7.41 -0.000629512
7.42 -0.00447068
7.43 -0.0082127
7.44 -0.0118046
7.45 -0.0152196
7.46 -0.0184409
7.47 -0.02145
7.48 -0.0242179
7.49 -0.0267314
7.5 -0.0290126
7.51 -0.0310683
7.52 -0.0329056
7.53 -0.0345256
7.54 -0.0359794
7.55 -0.0372937
7.56 -0.0384978
7.57 -0.0396151
7.58 -0.040691
7.59 -0.0417562
7.6 -0.0428381
7.61 -0.0439676
7.62 -0.0451651
7.63 -0.046442
7.64 -0.0478067
7.65 -0.0492677
7.66 -0.0508217
7.67 -0.0524494
7.68 -0.0541343
7.69 -0.0558554
7.7 -0.0575837
7.71 -0.0592857
7.72 -0.0609303
7.73 -0.0624856
7.74 -0.0638976
7.75 -0.0651503
7.76 -0.0662189
7.77 -0.0670819
7.78 -0.0676964
7.79 -0.0680644
7.8 -0.0681945
7.81 -0.0680908
7.82 -0.0677494
7.83 -0.0671884
7.84 -0.0664529
7.85 -0.0655733
7.86 -0.0645825
7.87 -0.0635189
7.88 -0.0624363
7.89 -0.0613762
7.9 -0.0603792
7.91 -0.0595049
7.92 -0.0587774
7.93 -0.058225
7.94 -0.0578714
7.95 -0.0577588
7.96 -0.0578839
7.97 -0.0582361
7.98 -0.0588084
7.99 -0.0595994
8 -0.0605856
8.01 -0.0617202
8.02 -0.0629695
8.03 -0.0642971
8.04 -0.0656597
8.05 -0.0670078
8.06 -0.0683014
8.07 -0.0695025
8.08 -0.0705528
8.09 -0.0714385
8.1 -0.0721388
8.11 -0.0726383
8.12 -0.0729053
8.13 -0.0729548
8.14 -0.0728065
8.15 -0.0724773
8.16 -0.0719816
8.17 -0.071354
8.18 -0.0706434
8.19 -0.0698885
8.2 -0.0691313
8.21 -0.0684232
8.22 -0.0678022
8.23 -0.0673041
8.24 -0.0669602
8.25 -0.0668267
8.26 -0.0668957
8.27 -0.0671743
8.28 -0.0676624
8.29 -0.0683717
8.3 -0.0692659
8.31 -0.0703074
8.32 -0.0714601
8.33 -0.0726828
8.34 -0.0739175
8.35 -0.0751065
8.36 -0.0761955
8.37 -0.0771228
8.38 -0.0778082
8.39 -0.0782248
8.4 -0.0783303
8.41 -0.0780891
8.42 -0.0774124
8.43 -0.0763392
8.44 -0.0748658
8.45 -0.0729977
8.46 -0.0707095
8.47 -0.0680607
8.48 -0.0651059
8.49 -0.0618913
8.5 -0.0584591
8.51 -0.0548795
8.52 -0.0512318
8.53 -0.0475804
8.54 -0.043994
8.55 -0.0405549
8.56 -0.0373096
8.57 -0.0343073
8.58 -0.0315898
8.59 -0.0292439
8.6 -0.0272438
8.61 -0.0255981
8.62 -0.0243059
8.63 -0.0233937
8.64 -0.0228091
8.65 -0.022505
8.66 -0.0224414
8.67 -0.0225831
8.68 -0.0228694
8.69 -0.0232318
8.7 -0.0236168
8.71 -0.0239694
8.72 -0.0242268
8.73 -0.0243529
8.74 -0.0243136
8.75 -0.0240827
8.76 -0.0236086
8.77 -0.0229185
8.78 -0.0220181
8.79 -0.0209227
8.8 -0.0196399
8.81 -0.0182222
8.82 -0.016718
8.83 -0.0151737
8.84 -0.0136443
8.85 -0.0121922
8.86 -0.0108665
8.87 -0.00971537
8.88 -0.00879284
8.89 -0.00816228
8.9 -0.00782317
8.91 -0.00779322
8.92 -0.00808024
8.93 -0.00872927
8.94 -0.00967211
8.95 -0.010881
8.96 -0.0123182
8.97 -0.0139528
8.98 -0.0157056
8.99 -0.0175082
9 -0.019295
9.01 -0.0209864
9.02 -0.0225021
9.03 -0.0237866
9.04 -0.0247815
9.05 -0.0254191
9.06 -0.0256205
9.07 -0.0253982
9.08 -0.0247337
9.09 -0.0236198
9.1 -0.0219959
9.11 -0.0199551
9.12 -0.0175311
9.13 -0.014768
9.14 -0.011692
9.15 -0.00839977
9.16 -0.00497075
9.17 -0.00147741
9.18 0.00199923
9.19 0.00537193
9.2 0.0085741
9.21 0.0115429
9.22 0.0142082
9.23 0.0164923
9.24 0.0183983
9.25 0.0199056
9.26 0.0210045
9.27 0.0216395
9.28 0.0218946
9.29 0.021801
9.3 0.0214002
9.31 0.020718
9.32 0.0198447
9.33 0.0188536
9.34 0.0178121
9.35 0.0167956
9.36 0.0158835
9.37 0.0151352
9.38 0.0146066
9.39 0.0143602
9.4 0.0144633
9.41 0.0149098
9.42 0.0157151
9.43 0.0168853
9.44 0.0184643
9.45 0.0203749
9.46 0.0225861
9.47 0.025059
9.48 0.0277674
9.49 0.0306311
9.5 0.0335865
9.51 0.0365756
9.52 0.0395344
9.53 0.0423982
9.54 0.045121
9.55 0.0476603
9.56 0.0499699
9.57 0.0520036
9.58 0.0537738
9.59 0.0552765
9.6 0.0565163
9.61 0.0574762
9.62 0.0582231
9.63 0.0587915
9.64 0.059222
9.65 0.0595545
9.66 0.0598538
9.67 0.0601722
9.68 0.0605584
9.69 0.061072
9.7 0.0617598
9.71 0.0626458
9.72 0.0637554
9.73 0.0651176
9.74 0.0667554
9.75 0.068636
9.76 0.0707442
9.77 0.0730568
9.78 0.0755582
9.79 0.078175
9.8 0.0808572
9.81 0.0835503
9.82 0.0861825
9.83 0.0886898
9.84 0.0910153
9.85 0.0931024
9.86 0.0948686
9.87 0.0962644
9.88 0.0972737
9.89 0.0978675
9.9 0.0980036
9.91 0.0976436
9.92 0.0968386
9.93 0.0956005
9.94 0.0939465
9.95 0.0918577
9.96 0.0894338
9.97 0.0867191
9.98 0.0837624
9.99 0.0805974
10 0.0773036
10.01 0.0739387
10.02 0.0705525
10.03 0.0671978
10.04 0.0639223
10.05 0.0607573
10.06 0.0577294
10.07 0.0548666
10.08 0.0521913
10.09 0.0496876
10.1 0.0473498
10.11 0.0451671
10.12 0.0431362
10.13 0.0412103
10.14 0.0393613
10.15 0.0375587
10.16 0.0357689
10.17 0.0339546
10.18 0.0320865
10.19 0.0301382
10.2 0.0280759
10.21 0.0258816
10.22 0.0235518
10.23 0.0210813
10.24 0.0184637
10.25 0.0157001
10.26 0.0128194
10.27 0.00983992
10.28 0.00678362
10.29 0.00367423
10.3 0.000550874
10.31 -0.00255665
10.32 -0.00561853
10.33 -0.00859239
10.34 -0.011456
10.35 -0.0141887
10.36 -0.0167714
10.37 -0.0191728
10.38 -0.0213865
10.39 -0.0234201
10.4 -0.0252753
10.41 -0.0269493
10.42 -0.0284469
10.43 -0.0298015
10.44 -0.0310312
10.45 -0.0321553
10.46 -0.0331875
10.47 -0.0341639
10.48 -0.0351051
10.49 -0.0360299
10.5 -0.0369565
10.51 -0.0378991
10.52 -0.0388658
10.53 -0.0398606
10.54 -0.0408854
10.55 -0.0419332
10.56 -0.0429922
10.57 -0.0440491
10.58 -0.045085
10.59 -0.0460755
10.6 -0.0470022
10.61 -0.0478438
10.62 -0.0485778
10.63 -0.0491655
10.64 -0.0496068
10.65 -0.0498885
10.66 -0.0500014
10.67 -0.0499167
10.68 -0.0496547
10.69 -0.049226
10.7 -0.0486415
10.71 -0.0479055
10.72 -0.0470471
10.73 -0.0460996
10.74 -0.0450905
10.75 -0.0440491
10.76 -0.0430113
10.77 -0.0420098
10.78 -0.0410733
10.79 -0.0402301
10.8 -0.039521
10.81 -0.0389497
10.82 -0.038529
10.83 -0.0382665
10.84 -0.0381855
10.85 -0.038262
10.86 -0.0384809
10.87 -0.0388258
10.88 -0.0392829
10.89 -0.039818
10.9 -0.0403953
10.91 -0.0409834
10.92 -0.041547
10.93 -0.0420457
10.94 -0.0424523
10.95 -0.0427396
10.96 -0.0428805
10.97 -0.0428337
10.98 -0.0426081
10.99 -0.0421974
11 -0.0416016
11.01 -0.0408039
11.02 -0.039841
11.03 -0.0387368
11.04 -0.0375167
11.05 -0.0362051
11.06 -0.0348454
11.07 -0.0334786
11.08 -0.0321419
11.09 -0.0308787
11.1 -0.0297351
11.11 -0.0287355
11.12 -0.0279078
11.13 -0.0272793
11.14 -0.0268948
11.15 -0.0267348
11.16 -0.0268014
11.17 -0.0270895
11.18 -0.0276139
11.19 -0.0283267
11.2 -0.029197
11.21 -0.0301931
11.22 -0.0312836
11.23 -0.0324178
11.24 -0.0335488
11.25 -0.0346342
11.26 -0.0356243
11.27 -0.0364676
11.28 -0.0371382
11.29 -0.0376055
11.3 -0.0378386
11.31 -0.0377873
11.32 -0.0374738
11.33 -0.0368952
11.34 -0.0360554
11.35 -0.0349324
11.36 -0.0335789
11.37 -0.0320249
11.38 -0.0303013
11.39 -0.0284329
11.4 -0.0264712
11.41 -0.0244639
11.42 -0.0224517
11.43 -0.0204796
11.44 -0.0185952
11.45 -0.0168284
11.46 -0.0152092
11.47 -0.0137673
11.48 -0.0125467
11.49 -0.0115345
11.5 -0.0107365
11.51 -0.0101521
11.52 -0.009803
11.53 -0.00964813
11.54 -0.00966576
11.55 -0.00983359
11.56 -0.0101362
11.57 -0.0105348
11.58 -0.0109936
11.59 -0.0114837
11.6 -0.0119758
11.61 -0.0124386
11.62 -0.0128505
11.63 -0.0131931
11.64 -0.0134498
11.65 -0.0136
11.66 -0.0136521
11.67 -0.0136076
11.68 -0.0134726
11.69 -0.0132475
11.7 -0.0129594
11.71 -0.0126275
11.72 -0.0122718
11.73 -0.0119159
11.74 -0.0115858
11.75 -0.0113025
11.76 -0.0110861
11.77 -0.0109609
11.78 -0.0109468
11.79 -0.0110459
11.8 -0.0112642
11.81 -0.0116071
11.82 -0.0120839
11.83 -0.0126701
11.84 -0.0133538
11.85 -0.0141192
11.86 -0.0149531
11.87 -0.0158225
11.88 -0.0167023
11.89 -0.0175676
11.9 -0.0183861
11.91 -0.0191313
