[DEFAULT]

version = diffpy.pdfgetx-2.2.1

# input and output specifications
dataformat = twotheta
inputfile = Synthetic_CSH_700degC_normalized.chi
backgroundfiles = quartz_030degC_normalized.chi
outputtype = gr

# PDF calculation setup
mode = xray
wavelength = 0.2113
twothetazero = 0
composition = CaO SiO2
bgscales = 1.0
rpoly = 0.9
qmaxinst = 23.7031
qmin = 0.5
qmax = 20
rmin = 0
rmax = 60
rstep = 0.01

# End of config --------------------------------------------------------------

#### start data
#S 1
#L r(Å)  G(Å$^{-2}$)
0 0
0.01 -0.00204433
0.02 -0.00401485
0.03 -0.00584894
0.04 -0.00748786
0.05 -0.00884277
0.06 -0.00988238
0.07 -0.0105825
0.08 -0.0109188
0.09 -0.0108466
0.1 -0.010366
0.11 -0.0095198
0.12 -0.00833222
0.13 -0.00682737
0.14 -0.00503935
0.15 -0.00305989
0.16 -0.000952287
0.17 0.00121481
0.18 0.00335534
0.19 0.00538907
0.2 0.00724333
0.21 0.00884872
0.22 0.0100957
0.23 0.0109469
0.24 0.0113704
0.25 0.0113333
0.26 0.010775
0.27 0.00969281
0.28 0.00813719
0.29 0.00613585
0.3 0.00371669
0.31 0.000923421
0.32 -0.0021232
0.33 -0.00533672
0.34 -0.0086204
0.35 -0.0118462
0.36 -0.0148949
0.37 -0.0176514
0.38 -0.0200005
0.39 -0.0217516
0.4 -0.0228279
0.41 -0.0231533
0.42 -0.0226432
0.43 -0.0211461
0.44 -0.0186068
0.45 -0.0150649
0.46 -0.0105092
0.47 -0.00490606
0.48 0.00177467
0.49 0.00935873
0.5 0.0177676
0.51 0.0269064
0.52 0.0367308
0.53 0.0469961
0.54 0.0575532
0.55 0.0682434
0.56 0.0788745
0.57 0.0892531
0.58 0.0992109
0.59 0.108581
0.6 0.117125
0.61 0.124674
0.62 0.131151
0.63 0.136441
0.64 0.140381
0.65 0.142786
0.66 0.143756
0.67 0.143262
0.68 0.141287
0.69 0.137637
0.7 0.132583
0.71 0.126187
0.72 0.118529
0.73 0.109574
0.74 0.0995582
0.75 0.0886445
0.76 0.0769641
0.77 0.0646103
0.78 0.0517566
0.79 0.0385823
0.8 0.0252187
0.81 0.0117932
0.82 -0.00155526
0.83 -0.0147208
0.84 -0.0276132
0.85 -0.0401519
0.86 -0.0522038
0.87 -0.0637785
0.88 -0.0748415
0.89 -0.0853703
0.9 -0.0952824
0.91 -0.10463
0.92 -0.113437
0.93 -0.121719
0.94 -0.129451
0.95 -0.136666
0.96 -0.143423
0.97 -0.149743
0.98 -0.155628
0.99 -0.161072
1 -0.166135
1.01 -0.170827
1.02 -0.175153
1.03 -0.179065
1.04 -0.18262
1.05 -0.185819
1.06 -0.188662
1.07 -0.191108
1.08 -0.193196
1.09 -0.19495
1.1 -0.196385
1.11 -0.197499
1.12 -0.198337
1.13 -0.19896
1.14 -0.199416
1.15 -0.199759
1.16 -0.200062
1.17 -0.200406
1.18 -0.200867
1.19 -0.201523
1.2 -0.202498
1.21 -0.203833
1.22 -0.20559
1.23 -0.207824
1.24 -0.210649
1.25 -0.214036
1.26 -0.217974
1.27 -0.222441
1.28 -0.227434
1.29 -0.232857
1.3 -0.238577
1.31 -0.24447
1.32 -0.25038
1.33 -0.256091
1.34 -0.261407
1.35 -0.266116
1.36 -0.26998
1.37 -0.272584
1.38 -0.273825
1.39 -0.273475
1.4 -0.271316
1.41 -0.266853
1.42 -0.2601
1.43 -0.250972
1.44 -0.239364
1.45 -0.224971
1.46 -0.207842
1.47 -0.18819
1.48 -0.166108
1.49 -0.141624
1.5 -0.114866
1.51 -0.0863325
1.52 -0.0563275
1.53 -0.0251874
1.54 0.00673389
1.55 0.0388618
1.56 0.0707503
1.57 0.101939
1.58 0.131742
1.59 0.159756
1.6 0.185566
1.61 0.208748
1.62 0.228584
1.63 0.244751
1.64 0.257159
1.65 0.26557
1.66 0.269568
1.67 0.268814
1.68 0.263723
1.69 0.254336
1.7 0.240698
1.71 0.2225
1.72 0.200599
1.73 0.175303
1.74 0.146971
1.75 0.115709
1.76 0.0823163
1.77 0.0473255
1.78 0.0112227
1.79 -0.0255106
1.8 -0.0622773
1.81 -0.0985739
1.82 -0.133954
1.83 -0.167903
1.84 -0.199898
1.85 -0.229768
1.86 -0.257244
1.87 -0.28206
1.88 -0.303685
1.89 -0.32241
1.9 -0.338198
1.91 -0.351063
1.92 -0.360688
1.93 -0.36753
1.94 -0.371806
1.95 -0.3737
1.96 -0.373228
1.97 -0.37073
1.98 -0.366573
1.99 -0.360986
2 -0.354138
2.01 -0.346234
2.02 -0.337575
2.03 -0.328322
2.04 -0.318604
2.05 -0.308491
2.06 -0.298105
2.07 -0.287475
2.08 -0.276602
2.09 -0.265413
2.1 -0.253875
2.11 -0.241913
2.12 -0.229433
2.13 -0.21626
2.14 -0.202292
2.15 -0.187463
2.16 -0.171683
2.17 -0.154808
2.18 -0.136731
2.19 -0.117535
2.2 -0.0972277
2.21 -0.0758296
2.22 -0.0533146
2.23 -0.0299535
2.24 -0.00590388
2.25 0.0186435
2.26 0.0434704
2.27 0.0682543
2.28 0.0927116
2.29 0.116547
2.3 0.139329
2.31 0.160729
2.32 0.180503
2.33 0.198356
2.34 0.213862
2.35 0.226635
2.36 0.236689
2.37 0.24385
2.38 0.247921
2.39 0.248446
2.4 0.245825
2.41 0.240085
2.42 0.231303
2.43 0.219213
2.44 0.204384
2.45 0.187095
2.46 0.167614
2.47 0.146083
2.48 0.122978
2.49 0.0987608
2.5 0.0737981
2.51 0.0484658
2.52 0.023207
2.53 -0.00159073
2.54 -0.0255849
2.55 -0.0484229
2.56 -0.0696084
2.57 -0.0890619
2.58 -0.106578
2.59 -0.121992
2.6 -0.134856
2.61 -0.145377
2.62 -0.153578
2.63 -0.159491
2.64 -0.162969
2.65 -0.164258
2.66 -0.163641
2.67 -0.161308
2.68 -0.157395
2.69 -0.152147
2.7 -0.145956
2.71 -0.139086
2.72 -0.131794
2.73 -0.124367
2.74 -0.117096
2.75 -0.110211
2.76 -0.10392
2.77 -0.0985445
2.78 -0.094154
2.79 -0.0908527
2.8 -0.088725
2.81 -0.0879534
2.82 -0.0884897
2.83 -0.0902402
2.84 -0.0931479
2.85 -0.0971892
2.86 -0.102252
2.87 -0.108092
2.88 -0.114549
2.89 -0.121449
2.9 -0.128597
2.91 -0.135744
2.92 -0.142689
2.93 -0.149238
2.94 -0.155089
2.95 -0.160121
2.96 -0.164181
2.97 -0.167129
2.98 -0.168699
2.99 -0.168846
3 -0.167569
3.01 -0.164827
3.02 -0.160504
3.03 -0.154577
3.04 -0.147227
3.05 -0.138518
3.06 -0.128507
3.07 -0.117199
3.08 -0.104888
3.09 -0.0917185
3.1 -0.0778443
3.11 -0.0633722
3.12 -0.0485646
3.13 -0.0335964
3.14 -0.0186332
3.15 -0.00387085
3.16 0.0105242
3.17 0.0244251
3.18 0.0377089
3.19 0.0502119
3.2 0.0618119
3.21 0.072513
3.22 0.0822706
3.23 0.0910318
3.24 0.0986957
3.25 0.105411
3.26 0.111219
3.27 0.116174
3.28 0.120247
3.29 0.123645
3.3 0.126477
3.31 0.12885
3.32 0.130855
3.33 0.13265
3.34 0.134368
3.35 0.136122
3.36 0.138038
3.37 0.14024
3.38 0.142796
3.39 0.145782
3.4 0.149272
3.41 0.153366
3.42 0.158021
3.43 0.16324
3.44 0.169012
3.45 0.175377
3.46 0.182208
3.47 0.189433
3.48 0.196975
3.49 0.204757
3.5 0.212648
3.51 0.220529
3.52 0.228288
3.53 0.235786
3.54 0.242883
3.55 0.249493
3.56 0.255514
3.57 0.260829
3.58 0.265269
3.59 0.268857
3.6 0.271542
3.61 0.273283
3.62 0.27391
3.63 0.273559
3.64 0.272249
3.65 0.270007
3.66 0.26678
3.67 0.262691
3.68 0.257849
3.69 0.252331
3.7 0.24618
3.71 0.239497
3.72 0.232419
3.73 0.225037
3.74 0.217431
3.75 0.209684
3.76 0.201894
3.77 0.194126
3.78 0.186434
3.79 0.178886
3.8 0.171499
3.81 0.164291
3.82 0.157268
3.83 0.150447
3.84 0.143796
3.85 0.137284
3.86 0.130878
3.87 0.124544
3.88 0.118233
3.89 0.111901
3.9 0.105504
3.91 0.0990033
3.92 0.0923481
3.93 0.0855295
3.94 0.0785329
3.95 0.0713538
3.96 0.0639729
3.97 0.0564393
3.98 0.0487867
3.99 0.041059
4 0.0333168
4.01 0.0256393
4.02 0.0181036
4.03 0.010793
4.04 0.00382757
4.05 -0.00267909
4.06 -0.00866239
4.07 -0.0140319
4.08 -0.0186723
4.09 -0.0224235
4.1 -0.0253065
4.11 -0.0272643
4.12 -0.0282528
4.13 -0.0280824
4.14 -0.0268946
4.15 -0.0246992
4.16 -0.0215192
4.17 -0.0172896
4.18 -0.0121491
4.19 -0.00621316
4.2 0.000429555
4.21 0.00771626
4.22 0.0155137
4.23 0.0236528
4.24 0.0320073
4.25 0.0404463
4.26 0.0488145
4.27 0.0569797
4.28 0.0648217
4.29 0.0722281
4.3 0.0789957
4.31 0.0851103
4.32 0.0904986
4.33 0.0951012
4.34 0.0987713
4.35 0.101544
4.36 0.103448
4.37 0.10449
4.38 0.104629
4.39 0.103913
4.4 0.102462
4.41 0.100341
4.42 0.0976012
4.43 0.0942982
4.44 0.0905879
4.45 0.0865595
4.46 0.0823029
4.47 0.0778976
4.48 0.0734599
4.49 0.069068
4.5 0.0647934
4.51 0.0607284
4.52 0.0569194
4.53 0.0534002
4.54 0.0502023
4.55 0.0473752
4.56 0.0449293
4.57 0.0428347
4.58 0.0410802
4.59 0.0396578
4.6 0.038557
4.61 0.0377052
4.62 0.0370621
4.63 0.0365842
4.64 0.0362364
4.65 0.0359469
4.66 0.0356684
4.67 0.0353549
4.68 0.0349474
4.69 0.0344059
4.7 0.0336974
4.71 0.0327897
4.72 0.0316341
4.73 0.0302045
4.74 0.0285018
4.75 0.026513
4.76 0.0242164
4.77 0.0215843
4.78 0.0186506
4.79 0.0154176
4.8 0.0118884
4.81 0.00802612
4.82 0.00388458
4.83 -0.00052746
4.84 -0.00520076
4.85 -0.0101557
4.86 -0.0153591
4.87 -0.0207922
4.88 -0.0264453
4.89 -0.0323252
4.9 -0.0384181
4.91 -0.0446971
4.92 -0.0511506
4.93 -0.0577719
4.94 -0.0645541
4.95 -0.0714619
4.96 -0.0784761
4.97 -0.0855753
4.98 -0.0927399
4.99 -0.0999299
5 -0.107115
5.01 -0.114261
5.02 -0.121318
5.03 -0.128249
5.04 -0.135016
5.05 -0.141578
5.06 -0.147868
5.07 -0.153838
5.08 -0.159466
5.09 -0.164712
5.1 -0.169517
5.11 -0.173812
5.12 -0.177615
5.13 -0.180902
5.14 -0.183649
5.15 -0.185758
5.16 -0.187306
5.17 -0.188291
5.18 -0.18872
5.19 -0.188536
5.2 -0.18781
5.21 -0.186586
5.22 -0.184892
5.23 -0.182728
5.24 -0.180145
5.25 -0.177217
5.26 -0.173988
5.27 -0.170492
5.28 -0.16677
5.29 -0.162897
5.3 -0.158914
5.31 -0.154866
5.32 -0.150793
5.33 -0.14674
5.34 -0.142737
5.35 -0.138813
5.36 -0.135007
5.37 -0.131328
5.38 -0.127785
5.39 -0.124387
5.4 -0.121151
5.41 -0.118072
5.42 -0.115135
5.43 -0.11233
5.44 -0.109653
5.45 -0.107092
5.46 -0.10462
5.47 -0.10222
5.48 -0.0998739
5.49 -0.097567
5.5 -0.0952747
5.51 -0.0929809
5.52 -0.0906705
5.53 -0.0883241
5.54 -0.0859314
5.55 -0.0834836
5.56 -0.0809726
5.57 -0.0783859
5.58 -0.0757202
5.59 -0.0729784
5.6 -0.0701602
5.61 -0.0672631
5.62 -0.0642861
5.63 -0.0612412
5.64 -0.0581334
5.65 -0.0549679
5.66 -0.0517451
5.67 -0.0484804
5.68 -0.0451812
5.69 -0.0418551
5.7 -0.0385089
5.71 -0.0351539
5.72 -0.0317991
5.73 -0.0284531
5.74 -0.0251273
5.75 -0.0218322
5.76 -0.0185757
5.77 -0.0153675
5.78 -0.0122209
5.79 -0.00915137
5.8 -0.00616241
5.81 -0.00326393
5.82 -0.000467083
5.83 0.00220233
5.84 0.0047507
5.85 0.00716993
5.86 0.00945284
5.87 0.0115738
5.88 0.0135427
5.89 0.015361
5.9 0.0170275
5.91 0.0185297
5.92 0.0198757
5.93 0.0210813
5.94 0.0221547
5.95 0.0231004
5.96 0.0239275
5.97 0.0246636
5.98 0.0253253
5.99 0.02593
6 0.0264952
6.01 0.0270485
6.02 0.0276102
6.03 0.0282005
6.04 0.0288481
6.05 0.0295687
6.06 0.0303777
6.07 0.03129
6.08 0.03233
6.09 0.0335059
6.1 0.034816
6.11 0.0362635
6.12 0.0378561
6.13 0.0395963
6.14 0.0414623
6.15 0.0434441
6.16 0.0455303
6.17 0.0477139
6.18 0.0499627
6.19 0.052257
6.2 0.0545761
6.21 0.0568959
6.22 0.0591912
6.23 0.0614408
6.24 0.0636239
6.25 0.0657112
6.26 0.0676847
6.27 0.0695347
6.28 0.0712483
6.29 0.0728059
6.3 0.0741912
6.31 0.0754148
6.32 0.0764746
6.33 0.077368
6.34 0.0780778
6.35 0.0786327
6.36 0.0790392
6.37 0.0793056
6.38 0.0794245
6.39 0.0794223
6.4 0.0793124
6.41 0.0791053
6.42 0.0788039
6.43 0.0784226
6.44 0.0779757
6.45 0.0774713
6.46 0.0769141
6.47 0.0763098
6.48 0.0756686
6.49 0.074995
6.5 0.0742927
6.51 0.0735628
6.52 0.0728129
6.53 0.0720464
6.54 0.0712674
6.55 0.07048
6.56 0.0696915
6.57 0.0689085
6.58 0.0681386
6.59 0.0673937
6.6 0.066685
6.61 0.0660223
6.62 0.0654178
6.63 0.0648894
6.64 0.0644566
6.65 0.0641255
6.66 0.0639093
6.67 0.0638236
6.68 0.0638983
6.69 0.0641248
6.7 0.0645108
6.71 0.0650617
6.72 0.0658042
6.73 0.0667173
6.74 0.0677939
6.75 0.0690268
6.76 0.0704194
6.77 0.0719493
6.78 0.0735908
6.79 0.0753244
6.8 0.0771307
6.81 0.078983
6.82 0.0808494
6.83 0.0827036
6.84 0.0845179
6.85 0.0862547
6.86 0.0878957
6.87 0.0894181
6.88 0.0908012
6.89 0.0920025
6.9 0.093025
6.91 0.093861
6.92 0.0945031
6.93 0.0949273
6.94 0.0951428
6.95 0.0951653
6.96 0.0950018
6.97 0.0946522
6.98 0.0941255
6.99 0.0934531
7 0.0926506
7.01 0.0917317
7.02 0.0907038
7.03 0.0895969
7.04 0.0884246
7.05 0.0871987
7.06 0.0859234
7.07 0.0846116
7.08 0.0832671
7.09 0.0818901
7.1 0.0804734
7.11 0.0790114
7.12 0.0774968
7.13 0.0759181
7.14 0.0742556
7.15 0.0724886
7.16 0.0706089
7.17 0.0686006
7.18 0.0664442
7.19 0.0641057
7.2 0.0615933
7.21 0.0588976
7.22 0.0560119
7.23 0.0529051
7.24 0.0496034
7.25 0.0461151
7.26 0.0424494
7.27 0.0386038
7.28 0.0346069
7.29 0.0304886
7.3 0.0262728
7.31 0.0219831
7.32 0.017652
7.33 0.0133153
7.34 0.00900287
7.35 0.00474678
7.36 0.000589484
7.37 -0.00345052
7.38 -0.00734866
7.39 -0.011083
7.4 -0.0146054
7.41 -0.0179232
7.42 -0.0210279
7.43 -0.0239117
7.44 -0.0265462
7.45 -0.0289428
7.46 -0.0311162
7.47 -0.0330715
7.48 -0.0348023
7.49 -0.0363139
7.5 -0.0376352
7.51 -0.0387763
7.52 -0.0397423
7.53 -0.0405265
7.54 -0.0411583
7.55 -0.0416431
7.56 -0.0419847
7.57 -0.0421636
7.58 -0.0421979
7.59 -0.0420863
7.6 -0.0418237
7.61 -0.041386
7.62 -0.0407733
7.63 -0.0399855
7.64 -0.0390148
7.65 -0.0378403
7.66 -0.0364509
7.67 -0.0348608
7.68 -0.0330692
7.69 -0.0310731
7.7 -0.0288604
7.71 -0.0264682
7.72 -0.023912
7.73 -0.0212111
7.74 -0.0183749
7.75 -0.0154522
7.76 -0.0124762
7.77 -0.0094819
7.78 -0.00651294
7.79 -0.00361385
7.8 -0.00082308
7.81 0.00181996
7.82 0.00426115
7.83 0.00645321
7.84 0.00838129
7.85 0.010017
7.86 0.0113259
7.87 0.0122539
7.88 0.0128312
7.89 0.0130524
7.9 0.0129177
7.91 0.0123826
7.92 0.0115118
7.93 0.0103273
7.94 0.00885296
7.95 0.0070907
7.96 0.00509371
7.97 0.00290829
7.98 0.00056937
7.99 -0.00189375
8 -0.00444134
8.01 -0.00703154
8.02 -0.0096349
8.03 -0.0122241
8.04 -0.0147705
8.05 -0.0172604
8.06 -0.0196822
8.07 -0.0220293
8.08 -0.0242883
8.09 -0.0264744
8.1 -0.028596
8.11 -0.0306646
8.12 -0.0326915
8.13 -0.0346985
8.14 -0.0367046
8.15 -0.0387272
8.16 -0.0407865
8.17 -0.0429003
8.18 -0.0450768
8.19 -0.0473243
8.2 -0.0496492
8.21 -0.0520576
8.22 -0.0545337
8.23 -0.0570667
8.24 -0.0596413
8.25 -0.062238
8.26 -0.0648267
8.27 -0.0673799
8.28 -0.0698684
8.29 -0.0722467
8.3 -0.0744853
8.31 -0.0765585
8.32 -0.078438
8.33 -0.0800796
8.34 -0.081455
8.35 -0.0825669
8.36 -0.0834041
8.37 -0.0839508
8.38 -0.0841831
8.39 -0.0841438
8.4 -0.0838466
8.41 -0.0833104
8.42 -0.0825301
8.43 -0.0815706
8.44 -0.0804655
8.45 -0.0792495
8.46 -0.0779544
8.47 -0.0766273
8.48 -0.075306
8.49 -0.0740228
8.5 -0.0728136
8.51 -0.0717081
8.52 -0.0707178
8.53 -0.0698549
8.54 -0.0691303
8.55 -0.0685536
8.56 -0.0680994
8.57 -0.0677527
8.58 -0.0674928
8.59 -0.0672991
8.6 -0.0671281
8.61 -0.0669458
8.62 -0.0667165
8.63 -0.0663899
8.64 -0.0659309
8.65 -0.0653103
8.66 -0.0644978
8.67 -0.0634491
8.68 -0.0621392
8.69 -0.0605737
8.7 -0.0587466
8.71 -0.0566487
8.72 -0.0542693
8.73 -0.051657
8.74 -0.0488352
8.75 -0.0458329
8.76 -0.042667
8.77 -0.0394042
8.78 -0.0360866
8.79 -0.0327578
8.8 -0.0294703
8.81 -0.0262706
8.82 -0.0231961
8.83 -0.020282
8.84 -0.0175758
8.85 -0.015106
8.86 -0.0128721
8.87 -0.0108823
8.88 -0.00914695
8.89 -0.00767575
8.9 -0.00642278
8.91 -0.00536482
8.92 -0.00447274
8.93 -0.00372705
8.94 -0.00306307
8.95 -0.00243883
8.96 -0.00181113
8.97 -0.00112609
8.98 -0.000339916
8.99 0.000582911
9 0.0016757
9.01 0.00298436
9.02 0.00453317
9.03 0.00631827
9.04 0.0083443
9.05 0.0106176
9.06 0.0131415
9.07 0.0158672
9.08 0.0187673
9.09 0.0218085
9.1 0.0249619
9.11 0.028163
9.12 0.0313663
9.13 0.0345251
9.14 0.0375764
9.15 0.040477
9.16 0.0431903
9.17 0.0456804
9.18 0.0478939
9.19 0.0498045
9.2 0.0514177
9.21 0.0527264
9.22 0.0537182
9.23 0.0543816
9.24 0.0547695
9.25 0.0549054
9.26 0.0548177
9.27 0.0545168
9.28 0.0540742
9.29 0.0535294
9.3 0.0529226
9.31 0.0522949
9.32 0.0516907
9.33 0.0511431
9.34 0.0506802
9.35 0.0503349
9.36 0.0501246
9.37 0.0500479
9.38 0.050105
9.39 0.0502943
9.4 0.0506065
9.41 0.0510053
9.42 0.0514634
9.43 0.0519491
9.44 0.0524201
9.45 0.0528357
9.46 0.0531573
9.47 0.0533471
9.48 0.0533441
9.49 0.0531266
9.5 0.052674
9.51 0.0519648
9.52 0.0509603
9.53 0.0496554
9.54 0.0480723
9.55 0.0462203
9.56 0.0441055
9.57 0.0417414
9.58 0.0391884
9.59 0.0364839
9.6 0.033669
9.61 0.0307871
9.62 0.0279008
9.63 0.025058
9.64 0.0223059
9.65 0.0197122
9.66 0.017311
9.67 0.0151333
9.68 0.013209
9.69 0.0115875
9.7 0.0102834
9.71 0.00928311
9.72 0.00858632
9.73 0.00819882
9.74 0.00812063
9.75 0.00829598
9.76 0.0086969
9.77 0.00929225
9.78 0.0100628
9.79 0.0109422
9.8 0.0118912
9.81 0.0128713
9.82 0.0138402
9.83 0.0147598
9.84 0.0156011
9.85 0.0163397
9.86 0.016944
9.87 0.0174014
9.88 0.0177154
9.89 0.0178867
9.9 0.0179156
9.91 0.0178097
9.92 0.0176024
9.93 0.0173164
9.94 0.0169773
9.95 0.0166144
9.96 0.0162643
9.97 0.0159564
9.98 0.0157193
9.99 0.0155952
10 0.0156008
10.01 0.0157515
10.02 0.0160615
10.03 0.0165556
10.04 0.0172339
10.05 0.0180812
10.06 0.019089
10.07 0.0202501
10.08 0.0215497
10.09 0.0229483
10.1 0.0244191
10.11 0.0259328
10.12 0.0274546
10.13 0.0289475
10.14 0.0303799
10.15 0.0317214
10.16 0.0329244
10.17 0.0339724
10.18 0.0348476
10.19 0.0355328
10.2 0.0359953
10.21 0.0362304
10.22 0.0362496
10.23 0.0360546
10.24 0.0356409
10.25 0.0350094
10.26 0.0341964
10.27 0.0332185
10.28 0.0320927
10.29 0.0308254
10.3 0.0294582
10.31 0.0280119
10.32 0.0265065
10.33 0.0249578
10.34 0.0233893
10.35 0.0218166
10.36 0.0202516
10.37 0.0187064
10.38 0.0171885
10.39 0.0157003
10.4 0.0142434
10.41 0.0128191
10.42 0.0114261
10.43 0.0100575
10.44 0.00870874
10.45 0.00737519
10.46 0.00605272
10.47 0.0047352
10.48 0.00341941
10.49 0.00210325
10.5 0.000785879
10.51 -0.000531463
10.52 -0.00184611
10.53 -0.00315403
10.54 -0.0044482
10.55 -0.00572133
10.56 -0.00696707
10.57 -0.00817795
10.58 -0.00934381
10.59 -0.0104542
10.6 -0.0115079
10.61 -0.0125008
10.62 -0.0134292
10.63 -0.0142844
10.64 -0.0150779
10.65 -0.0158141
10.66 -0.0164998
10.67 -0.0171399
10.68 -0.0177521
10.69 -0.0183506
10.7 -0.0189502
10.71 -0.0195694
10.72 -0.0202265
10.73 -0.0209361
10.74 -0.0217127
10.75 -0.0225751
10.76 -0.0235407
10.77 -0.0246091
10.78 -0.0257855
10.79 -0.0270738
10.8 -0.0284854
10.81 -0.0299984
10.82 -0.0316029
10.83 -0.0332858
10.84 -0.0350366
10.85 -0.0368255
10.86 -0.0386291
10.87 -0.0404234
10.88 -0.0421774
10.89 -0.0438625
10.9 -0.0454561
10.91 -0.0469349
10.92 -0.0482678
10.93 -0.0494259
10.94 -0.0504086
10.95 -0.0512046
10.96 -0.0518029
10.97 -0.0521763
10.98 -0.0523552
10.99 -0.0523467
11 -0.0521616
11.01 -0.0517949
11.02 -0.0512871
11.03 -0.0506632
11.04 -0.049947
11.05 -0.0491598
11.06 -0.0483347
11.07 -0.0475008
11.08 -0.0466825
11.09 -0.0459061
11.1 -0.0451973
11.11 -0.0445679
11.12 -0.0440306
11.13 -0.0435961
11.14 -0.0432818
11.15 -0.0430724
11.16 -0.0429629
11.17 -0.0429446
11.18 -0.043014
11.19 -0.0431435
11.2 -0.0433129
11.21 -0.0435018
11.22 -0.0436863
11.23 -0.0438407
11.24 -0.043944
11.25 -0.0439762
11.26 -0.0439125
11.27 -0.0437304
11.28 -0.0434274
11.29 -0.0429947
11.3 -0.0424245
11.31 -0.0416999
11.32 -0.0408435
11.33 -0.0398626
11.34 -0.0387676
11.35 -0.0375601
11.36 -0.0362714
11.37 -0.0349217
11.38 -0.0335309
11.39 -0.0321195
11.4 -0.0307125
11.41 -0.0293303
11.42 -0.0279911
11.43 -0.0267158
11.44 -0.025523
11.45 -0.0244168
11.46 -0.0234045
11.47 -0.0224923
11.48 -0.0216918
11.49 -0.0209863
11.5 -0.0203694
11.51 -0.0198324
11.52 -0.0193722
11.53 -0.0189652
11.54 -0.0185957
11.55 -0.0182487
11.56 -0.0179081
11.57 -0.0175563
11.58 -0.0171796
11.59 -0.0167661
11.6 -0.0163022
11.61 -0.0157771
11.62 -0.015191
11.63 -0.0145416
11.64 -0.0138279
11.65 -0.013047
11.66 -0.0122132
11.67 -0.0113345
11.68 -0.0104201
11.69 -0.00947893
11.7 -0.00852716
11.71 -0.00757704
11.72 -0.00664015
11.73 -0.0057311
11.74 -0.00485995
11.75 -0.00403319
11.76 -0.00325693
11.77 -0.00253905
11.78 -0.0018831
11.79 -0.00128298
11.8 -0.000735694
11.81 -0.000237375
11.82 0.000215619
11.83 0.000638042
11.84 0.00103941
11.85 0.00142982
11.86 0.00182094
11.87 0.00222406
11.88 0.00264821
11.89 0.00310125
11.9 0.00359382
11.91 0.00412887
