[DEFAULT]

version = diffpy.pdfgetx-2.2.1

# input and output specifications
dataformat = twotheta
inputfile = Synthetic_CSH_CSH_pdf_ramp_400_10_normalized.chi
backgroundfiles = quartz_030degC_normalized.chi
outputtype = gr

# PDF calculation setup
mode = xray
wavelength = 0.2113
twothetazero = 0
composition = CaO SiO2
bgscales = 1.0
rpoly = 0.9
qmaxinst = 23.7031
qmin = 0.5
qmax = 20
rmin = 0
rmax = 60
rstep = 0.01

# End of config --------------------------------------------------------------

#### start data
#S 1
#L r(Å)  G(Å$^{-2}$)
0 0
0.01 -0.00312042
0.02 -0.00612756
0.03 -0.00892534
0.04 -0.0114238
0.05 -0.0134872
0.06 -0.015068
0.07 -0.0161302
0.08 -0.0166371
0.09 -0.0165222
0.1 -0.0157866
0.11 -0.0144973
0.12 -0.0126919
0.13 -0.0104084
0.14 -0.00769989
0.15 -0.00470518
0.16 -0.00151979
0.17 0.0017534
0.18 0.00498649
0.19 0.0080615
0.2 0.0108726
0.21 0.0133197
0.22 0.0152458
0.23 0.0166002
0.24 0.0173407
0.25 0.0174239
0.26 0.0167687
0.27 0.0153769
0.28 0.0133247
0.29 0.0106556
0.3 0.00741335
0.31 0.00366338
0.32 -0.000426095
0.33 -0.00473563
0.34 -0.00913404
0.35 -0.0134506
0.36 -0.0175312
0.37 -0.0212297
0.38 -0.0244031
0.39 -0.0268176
0.4 -0.0283886
0.41 -0.0290347
0.42 -0.0286673
0.43 -0.0271231
0.44 -0.0243603
0.45 -0.020449
0.46 -0.0154012
0.47 -0.00920854
0.48 -0.00187484
0.49 0.0063794
0.5 0.0154382
0.51 0.0251685
0.52 0.0354697
0.53 0.0460743
0.54 0.0568046
0.55 0.067478
0.56 0.0778576
0.57 0.0877584
0.58 0.0970195
0.59 0.105482
0.6 0.11291
0.61 0.119167
0.62 0.124226
0.63 0.12801
0.64 0.130404
0.65 0.131286
0.66 0.13081
0.67 0.129001
0.68 0.125899
0.69 0.121399
0.7 0.115787
0.71 0.109159
0.72 0.101627
0.73 0.0932211
0.74 0.0841517
0.75 0.0745628
0.76 0.0645684
0.77 0.0542588
0.78 0.0437533
0.79 0.033155
0.8 0.0225338
0.81 0.0119501
0.82 0.00145695
0.83 -0.00892601
0.84 -0.0191859
0.85 -0.0293197
0.86 -0.0393187
0.87 -0.0492165
0.88 -0.059031
0.89 -0.0687802
0.9 -0.0784756
0.91 -0.0881336
0.92 -0.0977571
0.93 -0.107338
0.94 -0.11685
0.95 -0.126254
0.96 -0.135507
0.97 -0.144548
0.98 -0.15329
0.99 -0.161612
1 -0.169456
1.01 -0.176729
1.02 -0.183328
1.03 -0.189037
1.04 -0.193876
1.05 -0.197774
1.06 -0.20067
1.07 -0.202387
1.08 -0.203009
1.09 -0.202582
1.1 -0.201143
1.11 -0.198679
1.12 -0.195324
1.13 -0.191268
1.14 -0.186662
1.15 -0.181666
1.16 -0.176495
1.17 -0.17139
1.18 -0.166562
1.19 -0.162229
1.2 -0.158725
1.21 -0.156156
1.22 -0.154689
1.23 -0.154465
1.24 -0.155781
1.25 -0.158571
1.26 -0.16281
1.27 -0.168469
1.28 -0.17558
1.29 -0.183951
1.3 -0.193303
1.31 -0.2034
1.32 -0.213973
1.33 -0.224655
1.34 -0.235051
1.35 -0.244789
1.36 -0.253467
1.37 -0.260443
1.38 -0.265511
1.39 -0.268315
1.4 -0.268528
1.41 -0.265449
1.42 -0.259118
1.43 -0.249451
1.44 -0.236347
1.45 -0.219457
1.46 -0.198935
1.47 -0.175157
1.48 -0.148339
1.49 -0.118643
1.5 -0.0863781
1.51 -0.0522714
1.52 -0.0168162
1.53 0.0194525
1.54 0.0558961
1.55 0.0918181
1.56 0.126613
1.57 0.159681
1.58 0.190055
1.59 0.217365
1.6 0.241182
1.61 0.261069
1.62 0.276221
1.63 0.286425
1.64 0.29178
1.65 0.292183
1.66 0.287346
1.67 0.277125
1.68 0.262226
1.69 0.242912
1.7 0.219464
1.71 0.191885
1.72 0.161228
1.73 0.128011
1.74 0.0927834
1.75 0.0559956
1.76 0.0184636
1.77 -0.019215
1.78 -0.0564968
1.79 -0.0927342
1.8 -0.127409
1.81 -0.160182
1.82 -0.190711
1.83 -0.218561
1.84 -0.243361
1.85 -0.265258
1.86 -0.284197
1.87 -0.300139
1.88 -0.312812
1.89 -0.322777
1.9 -0.330221
1.91 -0.335365
1.92 -0.338216
1.93 -0.339314
1.94 -0.338982
1.95 -0.337492
1.96 -0.335038
1.97 -0.331928
1.98 -0.328411
1.99 -0.324649
2 -0.320758
2.01 -0.316818
2.02 -0.312854
2.03 -0.308836
2.04 -0.304688
2.05 -0.300244
2.06 -0.295369
2.07 -0.289882
2.08 -0.28358
2.09 -0.276079
2.1 -0.267256
2.11 -0.256926
2.12 -0.244901
2.13 -0.230817
2.14 -0.214594
2.15 -0.196268
2.16 -0.175801
2.17 -0.153082
2.18 -0.128113
2.19 -0.101241
2.2 -0.0726491
2.21 -0.0425487
2.22 -0.011128
2.23 0.0210806
2.24 0.053712
2.25 0.0863751
2.26 0.118549
2.27 0.149805
2.28 0.179733
2.29 0.20793
2.3 0.233758
2.31 0.256889
2.32 0.277143
2.33 0.294254
2.34 0.307789
2.35 0.317428
2.36 0.323419
2.37 0.325732
2.38 0.324316
2.39 0.318859
2.4 0.310021
2.41 0.298006
2.42 0.283061
2.43 0.265142
2.44 0.244944
2.45 0.222865
2.46 0.199269
2.47 0.174455
2.48 0.148913
2.49 0.12307
2.5 0.0972779
2.51 0.0719108
2.52 0.0473514
2.53 0.0238195
2.54 0.00154505
2.55 -0.0192408
2.56 -0.0381784
2.57 -0.0553688
2.58 -0.0707451
2.59 -0.0842763
2.6 -0.0957065
2.61 -0.105316
2.62 -0.113208
2.63 -0.119477
2.64 -0.124098
2.65 -0.127299
2.66 -0.129311
2.67 -0.130287
2.68 -0.130337
2.69 -0.129624
2.7 -0.12838
2.71 -0.126749
2.72 -0.124864
2.73 -0.122854
2.74 -0.120856
2.75 -0.118965
2.76 -0.117263
2.77 -0.115861
2.78 -0.114785
2.79 -0.114066
2.8 -0.113729
2.81 -0.113828
2.82 -0.114343
2.83 -0.115242
2.84 -0.116506
2.85 -0.118127
2.86 -0.120073
2.87 -0.122271
2.88 -0.124674
2.89 -0.127234
2.9 -0.129897
2.91 -0.132586
2.92 -0.135239
2.93 -0.137794
2.94 -0.140152
2.95 -0.142262
2.96 -0.14406
2.97 -0.145483
2.98 -0.146416
2.99 -0.146812
3 -0.146641
3.01 -0.145855
3.02 -0.144363
3.03 -0.142105
3.04 -0.139119
3.05 -0.135389
3.06 -0.13089
3.07 -0.125549
3.08 -0.119488
3.09 -0.112738
3.1 -0.10534
3.11 -0.0972695
3.12 -0.0886807
3.13 -0.0796558
3.14 -0.0702772
3.15 -0.0606147
3.16 -0.0507921
3.17 -0.0409168
3.18 -0.0310824
3.19 -0.0213953
3.2 -0.0119616
3.21 -0.0028431
3.22 0.00589476
3.23 0.014184
3.24 0.0219306
3.25 0.0291719
3.26 0.0359018
3.27 0.0421297
3.28 0.0478152
3.29 0.0530732
3.3 0.0579671
3.31 0.0625674
3.32 0.0669413
3.33 0.0712065
3.34 0.0754684
3.35 0.079824
3.36 0.0843899
3.37 0.0892811
3.38 0.0945612
3.39 0.100303
3.4 0.106582
3.41 0.113506
3.42 0.121025
3.43 0.129145
3.44 0.137849
3.45 0.147177
3.46 0.156985
3.47 0.16719
3.48 0.177697
3.49 0.188403
3.5 0.199151
3.51 0.209798
3.52 0.220203
3.53 0.230185
3.54 0.239566
3.55 0.248244
3.56 0.256092
3.57 0.262958
3.58 0.268624
3.59 0.273132
3.6 0.276421
3.61 0.278447
3.62 0.278994
3.63 0.278253
3.64 0.276261
3.65 0.273066
3.66 0.268617
3.67 0.263087
3.68 0.256635
3.69 0.249372
3.7 0.241383
3.71 0.232813
3.72 0.223852
3.73 0.214629
3.74 0.205269
3.75 0.19591
3.76 0.186669
3.77 0.17764
3.78 0.168904
3.79 0.160589
3.8 0.152694
3.81 0.145246
3.82 0.138258
3.83 0.131781
3.84 0.125764
3.85 0.120156
3.86 0.114917
3.87 0.110021
3.88 0.105409
3.89 0.100997
3.9 0.0967315
3.91 0.0925615
3.92 0.0884359
3.93 0.0843061
3.94 0.0801418
3.95 0.075923
3.96 0.0716301
3.97 0.0672777
3.98 0.0628829
3.99 0.0584737
4 0.0540965
4.01 0.049807
4.02 0.0456616
4.03 0.0417241
4.04 0.0380894
4.05 0.0348445
4.06 0.0320348
4.07 0.0297278
4.08 0.0280093
4.09 0.0269984
4.1 0.0266687
4.11 0.0270557
4.12 0.0281835
4.13 0.0301828
4.14 0.0329333
4.15 0.036415
4.16 0.0405972
4.17 0.0455073
4.18 0.0510297
4.19 0.0570674
4.2 0.063542
4.21 0.0703872
4.22 0.0774917
4.23 0.0847304
4.24 0.0920032
4.25 0.0992029
4.26 0.1062
4.27 0.11291
4.28 0.119245
4.29 0.125121
4.3 0.130368
4.31 0.134998
4.32 0.13896
4.33 0.142211
4.34 0.144626
4.35 0.146244
4.36 0.147086
4.37 0.147158
4.38 0.146415
4.39 0.144885
4.4 0.142663
4.41 0.139792
4.42 0.136296
4.43 0.132195
4.44 0.127619
4.45 0.122628
4.46 0.117284
4.47 0.111615
4.48 0.105735
4.49 0.0997052
4.5 0.0935831
4.51 0.0874241
4.52 0.0812884
4.53 0.0752204
4.54 0.0692585
4.55 0.0634488
4.56 0.0578219
4.57 0.0523847
4.58 0.0471497
4.59 0.0421319
4.6 0.0373472
4.61 0.0327639
4.62 0.02837
4.63 0.0241494
4.64 0.0201014
4.65 0.0161742
4.66 0.01234
4.67 0.00856883
4.68 0.00482931
4.69 0.00108193
4.7 -0.00270588
4.71 -0.00656467
4.72 -0.0105339
4.73 -0.0146444
4.74 -0.0189105
4.75 -0.0233512
4.76 -0.0279901
4.77 -0.0328539
4.78 -0.0379244
4.79 -0.0432016
4.8 -0.0486811
4.81 -0.0543808
4.82 -0.0602539
4.83 -0.0662811
4.84 -0.0724396
4.85 -0.0787128
4.86 -0.0850582
4.87 -0.0914414
4.88 -0.0978304
4.89 -0.104188
4.9 -0.110477
4.91 -0.116668
4.92 -0.122734
4.93 -0.128639
4.94 -0.134344
4.95 -0.139848
4.96 -0.145133
4.97 -0.150187
4.98 -0.154962
4.99 -0.159489
5 -0.163767
5.01 -0.167797
5.02 -0.171549
5.03 -0.175053
5.04 -0.178322
5.05 -0.181362
5.06 -0.18416
5.07 -0.186726
5.08 -0.189077
5.09 -0.191215
5.1 -0.193129
5.11 -0.194799
5.12 -0.196241
5.13 -0.197447
5.14 -0.1984
5.15 -0.199044
5.16 -0.1994
5.17 -0.199451
5.18 -0.199175
5.19 -0.198509
5.2 -0.197463
5.21 -0.196034
5.22 -0.194207
5.23 -0.191939
5.24 -0.189228
5.25 -0.186107
5.26 -0.182581
5.27 -0.178645
5.28 -0.174297
5.29 -0.169609
5.3 -0.164611
5.31 -0.159341
5.32 -0.153813
5.33 -0.148117
5.34 -0.142302
5.35 -0.136422
5.36 -0.130536
5.37 -0.124706
5.38 -0.118984
5.39 -0.113419
5.4 -0.108078
5.41 -0.103005
5.42 -0.0982154
5.43 -0.0937361
5.44 -0.0896014
5.45 -0.0858437
5.46 -0.082426
5.47 -0.0793408
5.48 -0.0765759
5.49 -0.0741463
5.5 -0.0719749
5.51 -0.0700264
5.52 -0.0682616
5.53 -0.0666508
5.54 -0.0651291
5.55 -0.0636482
5.56 -0.0621647
5.57 -0.0606301
5.58 -0.0590011
5.59 -0.0572499
5.6 -0.0553504
5.61 -0.0532735
5.62 -0.0509938
5.63 -0.0485263
5.64 -0.0458738
5.65 -0.0430444
5.66 -0.0400354
5.67 -0.0368963
5.68 -0.0336557
5.69 -0.030346
5.7 -0.0270034
5.71 -0.0236744
5.72 -0.0203982
5.73 -0.0172127
5.74 -0.0141692
5.75 -0.0113042
5.76 -0.00863748
5.77 -0.00619383
5.78 -0.00400649
5.79 -0.00210607
5.8 -0.000472941
5.81 0.000891367
5.82 0.00198754
5.83 0.00279211
5.84 0.00335908
5.85 0.00370736
5.86 0.00385902
5.87 0.00381926
5.88 0.00363645
5.89 0.00334231
5.9 0.00296382
5.91 0.00252414
5.92 0.00205371
5.93 0.00157795
5.94 0.00111617
5.95 0.000687341
5.96 0.000309445
5.97 -1.14169e-05
5.98 -0.000268196
5.99 -0.000455244
6 -0.000560353
6.01 -0.000593115
6.02 -0.000553788
6.03 -0.000442947
6.04 -0.000251315
6.05 1.41624e-05
6.06 0.000353904
6.07 0.000771965
6.08 0.00128336
6.09 0.0018962
6.1 0.00261659
6.11 0.00345855
6.12 0.00444683
6.13 0.00561075
6.14 0.00695504
6.15 0.00849985
6.16 0.0102691
6.17 0.0123162
6.18 0.0146259
6.19 0.0172132
6.2 0.0200898
6.21 0.0233052
6.22 0.0268293
6.23 0.0306525
6.24 0.0347674
6.25 0.0391861
6.26 0.0438772
6.27 0.048798
6.28 0.0539191
6.29 0.0592138
6.3 0.0646431
6.31 0.0701494
6.32 0.0756897
6.33 0.0812193
6.34 0.0866801
6.35 0.0920328
6.36 0.0972371
6.37 0.102256
6.38 0.10702
6.39 0.111525
6.4 0.115751
6.41 0.119681
6.42 0.123274
6.43 0.126534
6.44 0.129482
6.45 0.132125
6.46 0.134456
6.47 0.136482
6.48 0.138253
6.49 0.13979
6.5 0.141113
6.51 0.142226
6.52 0.143183
6.53 0.144004
6.54 0.144711
6.55 0.14531
6.56 0.145826
6.57 0.146272
6.58 0.146653
6.59 0.146964
6.6 0.147203
6.61 0.147368
6.62 0.147447
6.63 0.14742
6.64 0.147263
6.65 0.146969
6.66 0.146519
6.67 0.145891
6.68 0.145042
6.69 0.143982
6.7 0.142698
6.71 0.141178
6.72 0.139384
6.73 0.137341
6.74 0.135056
6.75 0.132537
6.76 0.129773
6.77 0.126791
6.78 0.123624
6.79 0.120294
6.8 0.11682
6.81 0.113231
6.82 0.109569
6.83 0.105863
6.84 0.102143
6.85 0.0984455
6.86 0.0947986
6.87 0.0912276
6.88 0.0877559
6.89 0.0844237
6.9 0.0812355
6.91 0.0782027
6.92 0.0753358
6.93 0.0726603
6.94 0.070173
6.95 0.0678645
6.96 0.065733
6.97 0.063785
6.98 0.062019
6.99 0.0604106
7 0.0589508
7.01 0.0576331
7.02 0.0564601
7.03 0.0554027
7.04 0.0544505
7.05 0.0535929
7.06 0.0528302
7.07 0.0521401
7.08 0.051511
7.09 0.0509327
7.1 0.0503978
7.11 0.0498915
7.12 0.0494002
7.13 0.048912
7.14 0.0484125
7.15 0.0478845
7.16 0.0473147
7.17 0.0466877
7.18 0.0459853
7.19 0.0451786
7.2 0.0442613
7.21 0.0432175
7.22 0.0420315
7.23 0.0406641
7.24 0.0391215
7.25 0.0373957
7.26 0.035479
7.27 0.0333454
7.28 0.0310036
7.29 0.0284674
7.3 0.0257437
7.31 0.0228322
7.32 0.0197464
7.33 0.016522
7.34 0.0131815
7.35 0.00974876
7.36 0.00625009
7.37 0.00272691
7.38 -0.000789647
7.39 -0.00426826
7.4 -0.00766367
7.41 -0.0109522
7.42 -0.0141084
7.43 -0.0171087
7.44 -0.0199125
7.45 -0.022512
7.46 -0.024907
7.47 -0.0270932
7.48 -0.0290571
7.49 -0.0308011
7.5 -0.0323564
7.51 -0.0337391
7.52 -0.0349655
7.53 -0.0360496
7.54 -0.0370369
7.55 -0.0379548
7.56 -0.0388311
7.57 -0.0396948
7.58 -0.0405763
7.59 -0.0414984
7.6 -0.0424802
7.61 -0.0435465
7.62 -0.0447045
7.63 -0.0459544
7.64 -0.047295
7.65 -0.0487252
7.66 -0.0502324
7.67 -0.0517917
7.68 -0.0533819
7.69 -0.0549777
7.7 -0.0565453
7.71 -0.0580559
7.72 -0.0594804
7.73 -0.0607908
7.74 -0.0619358
7.75 -0.0629091
7.76 -0.0636936
7.77 -0.064275
7.78 -0.0646205
7.79 -0.0647402
7.8 -0.0646492
7.81 -0.0643577
7.82 -0.0638702
7.83 -0.06321
7.84 -0.0624207
7.85 -0.0615333
7.86 -0.0605809
7.87 -0.0596029
7.88 -0.0586426
7.89 -0.0577357
7.9 -0.0569158
7.91 -0.0562356
7.92 -0.0557074
7.93 -0.0553502
7.94 -0.0551785
7.95 -0.0552228
7.96 -0.0554714
7.97 -0.0559081
7.98 -0.0565199
7.99 -0.057297
8 -0.0582115
8.01 -0.0592201
8.02 -0.0602893
8.03 -0.0613834
8.04 -0.0624584
8.05 -0.0634766
8.06 -0.0644041
8.07 -0.0652099
8.08 -0.0658411
8.09 -0.0662961
8.1 -0.0665621
8.11 -0.0666313
8.12 -0.0664813
8.13 -0.0661336
8.14 -0.0656124
8.15 -0.0649384
8.16 -0.0641312
8.17 -0.0632274
8.18 -0.0622729
8.19 -0.0613049
8.2 -0.0603638
8.21 -0.059499
8.22 -0.0587408
8.23 -0.0581201
8.24 -0.0576631
8.25 -0.0574209
8.26 -0.0573799
8.27 -0.0575431
8.28 -0.0579072
8.29 -0.0584804
8.3 -0.0592262
8.31 -0.060108
8.32 -0.0610916
8.33 -0.0621388
8.34 -0.0631972
8.35 -0.0642152
8.36 -0.0651455
8.37 -0.0659345
8.38 -0.0665139
8.39 -0.0668623
8.4 -0.066945
8.41 -0.0667342
8.42 -0.0661581
8.43 -0.0652526
8.44 -0.0640182
8.45 -0.062463
8.46 -0.0605714
8.47 -0.0583967
8.48 -0.0559874
8.49 -0.0533852
8.5 -0.0506303
8.51 -0.0477838
8.52 -0.0449111
8.53 -0.0420663
8.54 -0.0393073
8.55 -0.0367039
8.56 -0.0342885
8.57 -0.0320992
8.58 -0.0301667
8.59 -0.0285603
8.6 -0.0272502
8.61 -0.0262377
8.62 -0.0255157
8.63 -0.0250981
8.64 -0.0249345
8.65 -0.02498
8.66 -0.0251953
8.67 -0.0255425
8.68 -0.025965
8.69 -0.0264049
8.7 -0.0268144
8.71 -0.0271433
8.72 -0.0273335
8.73 -0.027361
8.74 -0.0271983
8.75 -0.0268252
8.76 -0.0261941
8.77 -0.025339
8.78 -0.0242693
8.79 -0.0230021
8.8 -0.0215465
8.81 -0.019955
8.82 -0.0182749
8.83 -0.0165508
8.84 -0.0148346
8.85 -0.0131847
8.86 -0.0116478
8.87 -0.0102687
8.88 -0.00909752
8.89 -0.00819296
8.9 -0.00755531
8.91 -0.00720151
8.92 -0.00713956
8.93 -0.00741241
8.94 -0.00795865
8.95 -0.0087544
8.96 -0.00976709
8.97 -0.0109716
8.98 -0.0122976
8.99 -0.013684
9 -0.0150734
9.01 -0.0163968
9.02 -0.0175833
9.03 -0.0185824
9.04 -0.019342
9.05 -0.0198025
9.06 -0.0198942
9.07 -0.0196252
9.08 -0.0189778
9.09 -0.017944
9.1 -0.0164695
9.11 -0.0146329
9.12 -0.0124614
9.13 -0.00999174
9.14 -0.00724403
9.15 -0.00430077
9.16 -0.00122975
9.17 0.00190742
9.18 0.0050425
9.19 0.00810071
9.2 0.0110239
9.21 0.0137577
9.22 0.0162418
9.23 0.0184093
9.24 0.0202605
9.25 0.0217768
9.26 0.0229484
9.27 0.0237266
9.28 0.0241811
9.29 0.0243372
9.3 0.0242289
9.31 0.0238762
9.32 0.0233551
9.33 0.0227272
9.34 0.022049
9.35 0.0213834
9.36 0.0207973
9.37 0.0203416
9.38 0.0200636
9.39 0.0200159
9.4 0.0202549
9.41 0.0207766
9.42 0.0215941
9.43 0.0227124
9.44 0.0241674
9.45 0.0258943
9.46 0.0278667
9.47 0.0300508
9.48 0.032422
9.49 0.034912
9.5 0.037466
9.51 0.0400335
9.52 0.0425567
9.53 0.044979
9.54 0.0472607
9.55 0.049364
9.56 0.0512464
9.57 0.0528652
9.58 0.054232
9.59 0.0553423
9.6 0.0561987
9.61 0.0567816
9.62 0.0571525
9.63 0.057341
9.64 0.0573826
9.65 0.057309
9.66 0.0571802
9.67 0.0570445
9.68 0.0569461
9.69 0.0569381
9.7 0.0570651
9.71 0.0573531
9.72 0.0578284
9.73 0.0585202
9.74 0.0594545
9.75 0.0606073
9.76 0.0619703
9.77 0.0635279
9.78 0.0652747
9.79 0.0671479
9.8 0.0691076
9.81 0.0711092
9.82 0.0730973
9.83 0.0750147
9.84 0.0768113
9.85 0.0784382
9.86 0.0798259
9.87 0.0809289
9.88 0.0817286
9.89 0.082197
9.9 0.0822954
9.91 0.0819878
9.92 0.0813118
9.93 0.0802741
9.94 0.0788859
9.95 0.0771276
9.96 0.0750811
9.97 0.0727824
9.98 0.0702712
9.99 0.0675746
10 0.0647608
10.01 0.0618796
10.02 0.0589747
10.03 0.0560923
10.04 0.0532757
10.05 0.0505543
10.06 0.0479536
10.07 0.0455005
10.08 0.0432181
10.09 0.0410947
10.1 0.0391276
10.11 0.0373099
10.12 0.035643
10.13 0.0340849
10.14 0.0326119
10.15 0.0311974
10.16 0.0298136
10.17 0.0284247
10.18 0.0270024
10.19 0.025521
10.2 0.0239481
10.21 0.0222636
10.22 0.0204596
10.23 0.0185275
10.24 0.0164567
10.25 0.0142425
10.26 0.0119074
10.27 0.00946409
10.28 0.0069284
10.29 0.00431491
10.3 0.0016603
10.31 -0.00100989
10.32 -0.00366928
10.33 -0.00628315
10.34 -0.00882671
10.35 -0.0112781
10.36 -0.0136171
10.37 -0.0158132
10.38 -0.0178548
10.39 -0.0197428
10.4 -0.0214736
10.41 -0.0230395
10.42 -0.0244386
10.43 -0.0256968
10.44 -0.0268265
10.45 -0.0278414
10.46 -0.0287482
10.47 -0.0295811
10.48 -0.0303583
10.49 -0.0310972
10.5 -0.0318132
10.51 -0.0325247
10.52 -0.0332431
10.53 -0.0339764
10.54 -0.0347314
10.55 -0.0355084
10.56 -0.036303
10.57 -0.0371087
10.58 -0.0379158
10.59 -0.0387093
10.6 -0.0394753
10.61 -0.0401983
10.62 -0.0408615
10.63 -0.0414372
10.64 -0.0419203
10.65 -0.0422985
10.66 -0.0425618
10.67 -0.0426856
10.68 -0.0426801
10.69 -0.0425492
10.7 -0.0422972
10.71 -0.0419228
10.72 -0.0414441
10.73 -0.0408841
10.74 -0.0402613
10.75 -0.0395951
10.76 -0.0389108
10.77 -0.0382349
10.78 -0.0375898
10.79 -0.0369979
10.8 -0.0364908
10.81 -0.0360762
10.82 -0.0357669
10.83 -0.0355721
10.84 -0.0355134
10.85 -0.0355769
10.86 -0.0357549
10.87 -0.0360382
10.88 -0.0364212
10.89 -0.0368801
10.9 -0.037389
10.91 -0.0379253
10.92 -0.0384637
10.93 -0.0389743
10.94 -0.0394333
10.95 -0.0398182
10.96 -0.0401066
10.97 -0.0402649
10.98 -0.0402945
10.99 -0.040187
11 -0.0399385
11.01 -0.0395311
11.02 -0.0389888
11.03 -0.0383264
11.04 -0.0375598
11.05 -0.0367027
11.06 -0.0357862
11.07 -0.0348412
11.08 -0.033895
11.09 -0.032979
11.1 -0.0321278
11.11 -0.0313635
11.12 -0.0307092
11.13 -0.0301874
11.14 -0.0298331
11.15 -0.0296369
11.16 -0.0296032
11.17 -0.0297308
11.18 -0.0300336
11.19 -0.0304782
11.2 -0.0310432
11.21 -0.0317059
11.22 -0.0324438
11.23 -0.0332184
11.24 -0.0339936
11.25 -0.0347362
11.26 -0.0354068
11.27 -0.0359639
11.28 -0.0363854
11.29 -0.0366453
11.3 -0.0367172
11.31 -0.0365582
11.32 -0.0361843
11.33 -0.0355908
11.34 -0.0347791
11.35 -0.033728
11.36 -0.0324797
11.37 -0.0310577
11.38 -0.0294863
11.39 -0.0277848
11.4 -0.0259961
11.41 -0.0241611
11.42 -0.0223148
11.43 -0.0204959
11.44 -0.0187468
11.45 -0.0170954
11.46 -0.0155697
11.47 -0.0141979
11.48 -0.0130213
11.49 -0.0120315
11.5 -0.011236
11.51 -0.0106369
11.52 -0.0102574
11.53 -0.0100619
11.54 -0.0100323
11.55 -0.0101497
11.56 -0.0104019
11.57 -0.0107529
11.58 -0.0111685
11.59 -0.0116209
11.6 -0.0120811
11.61 -0.012517
11.62 -0.0129046
11.63 -0.0132229
11.64 -0.0134521
11.65 -0.0135661
11.66 -0.0135699
11.67 -0.0134605
11.68 -0.0132397
11.69 -0.0128997
11.7 -0.012467
11.71 -0.0119583
11.72 -0.0113918
11.73 -0.0107865
11.74 -0.0101704
11.75 -0.00956851
11.76 -0.00900341
11.77 -0.00850209
11.78 -0.00809011
11.79 -0.00777795
11.8 -0.00757879
11.81 -0.00750555
11.82 -0.00757768
11.83 -0.00777828
11.84 -0.00810287
11.85 -0.00854281
11.86 -0.00909834
11.87 -0.00973679
11.88 -0.0104369
11.89 -0.0111763
11.9 -0.0119304
11.91 -0.0126692
