[DEFAULT]

version = diffpy.pdfgetx-2.2.1

# input and output specifications
dataformat = twotheta
inputfile = Synthetic_CSH_100degC_normalized.chi
backgroundfiles = quartz_030degC_normalized.chi
outputtype = gr

# PDF calculation setup
mode = xray
wavelength = 0.2113
twothetazero = 0
composition = CaO SiO2
bgscales = 1.0
rpoly = 0.9
qmaxinst = 23.7031
qmin = 0.5
qmax = 20
rmin = 0
rmax = 60
rstep = 0.01

# End of config --------------------------------------------------------------

#### start data
#S 1
#L r(Å)  G(Å$^{-2}$)
0 0
0.01 -0.00138634
0.02 -0.00273259
0.03 -0.0040043
0.04 -0.00516837
0.05 -0.00617343
0.06 -0.00699843
0.07 -0.00762511
0.08 -0.00803354
0.09 -0.00818857
0.1 -0.0080794
0.11 -0.00772218
0.12 -0.00712039
0.13 -0.00627494
0.14 -0.00518933
0.15 -0.00391624
0.16 -0.00248701
0.17 -0.000938765
0.18 0.000690368
0.19 0.00233469
0.2 0.00394242
0.21 0.00545966
0.22 0.00680727
0.23 0.00793552
0.24 0.00879987
0.25 0.00935441
0.26 0.00952781
0.27 0.0092852
0.28 0.00863547
0.29 0.0075709
0.3 0.00607939
0.31 0.00415512
0.32 0.00188236
0.33 -0.00068872
0.34 -0.00349492
0.35 -0.00646995
0.36 -0.00948801
0.37 -0.0124479
0.38 -0.0152408
0.39 -0.017704
0.4 -0.0197278
0.41 -0.0212089
0.42 -0.0220378
0.43 -0.0220414
0.44 -0.0211195
0.45 -0.0192601
0.46 -0.0164097
0.47 -0.0124888
0.48 -0.00741377
0.49 -0.00132378
0.5 0.00573709
0.51 0.0137043
0.52 0.0225899
0.53 0.0321349
0.54 0.0421978
0.55 0.0526198
0.56 0.063228
0.57 0.0737924
0.58 0.0841164
0.59 0.0940079
0.6 0.103209
0.61 0.11151
0.62 0.118798
0.63 0.124926
0.64 0.129701
0.65 0.132913
0.66 0.134641
0.67 0.134846
0.68 0.133506
0.69 0.130418
0.7 0.125871
0.71 0.119942
0.72 0.11273
0.73 0.104226
0.74 0.0946963
0.75 0.0843305
0.76 0.0732861
0.77 0.0616928
0.78 0.0497461
0.79 0.0376311
0.8 0.0254866
0.81 0.0134476
0.82 0.00165292
0.83 -0.00982785
0.84 -0.0209308
0.85 -0.0316084
0.86 -0.0417703
0.87 -0.0514821
0.88 -0.0607589
0.89 -0.0696288
0.9 -0.0780886
0.91 -0.0862259
0.92 -0.0941002
0.93 -0.101757
0.94 -0.109226
0.95 -0.116544
0.96 -0.123742
0.97 -0.130822
0.98 -0.137764
0.99 -0.144521
1 -0.151059
1.01 -0.157314
1.02 -0.163208
1.03 -0.168576
1.04 -0.173385
1.05 -0.177542
1.06 -0.180959
1.07 -0.183438
1.08 -0.184987
1.09 -0.185589
1.1 -0.185222
1.11 -0.183807
1.12 -0.181409
1.13 -0.178169
1.14 -0.174191
1.15 -0.169587
1.16 -0.164526
1.17 -0.159266
1.18 -0.154017
1.19 -0.149011
1.2 -0.144583
1.21 -0.140918
1.22 -0.138237
1.23 -0.136738
1.24 -0.136795
1.25 -0.13842
1.26 -0.141657
1.27 -0.146543
1.28 -0.153204
1.29 -0.161501
1.3 -0.17117
1.31 -0.182003
1.32 -0.193761
1.33 -0.206093
1.34 -0.218529
1.35 -0.230657
1.36 -0.242023
1.37 -0.251931
1.38 -0.260051
1.39 -0.265939
1.4 -0.269175
1.41 -0.268928
1.42 -0.265154
1.43 -0.25769
1.44 -0.246365
1.45 -0.230724
1.46 -0.210892
1.47 -0.187262
1.48 -0.16006
1.49 -0.129454
1.5 -0.0957963
1.51 -0.0599466
1.52 -0.0224991
1.53 0.0158941
1.54 0.0544407
1.55 0.0922865
1.56 0.12868
1.57 0.162875
1.58 0.193667
1.59 0.220608
1.6 0.24318
1.61 0.260863
1.62 0.272694
1.63 0.278468
1.64 0.278364
1.65 0.27233
1.66 0.260124
1.67 0.241709
1.68 0.218047
1.69 0.18959
1.7 0.156837
1.71 0.120076
1.72 0.0806266
1.73 0.039262
1.74 -0.00321507
1.75 -0.0459221
1.76 -0.0879167
1.77 -0.128436
1.78 -0.166775
1.79 -0.201971
1.8 -0.233481
1.81 -0.261075
1.82 -0.284442
1.83 -0.303132
1.84 -0.316863
1.85 -0.326177
1.86 -0.331263
1.87 -0.332356
1.88 -0.329474
1.89 -0.32366
1.9 -0.315465
1.91 -0.305483
1.92 -0.294262
1.93 -0.282643
1.94 -0.271255
1.95 -0.260661
1.96 -0.251547
1.97 -0.244373
1.98 -0.239379
1.99 -0.236799
2 -0.23691
2.01 -0.239834
2.02 -0.245186
2.03 -0.252742
2.04 -0.262206
2.05 -0.273268
2.06 -0.285164
2.07 -0.297329
2.08 -0.309155
2.09 -0.31979
2.1 -0.328628
2.11 -0.335081
2.12 -0.338576
2.13 -0.338204
2.14 -0.33359
2.15 -0.32462
2.16 -0.311064
2.17 -0.292519
2.18 -0.268799
2.19 -0.240524
2.2 -0.207949
2.21 -0.171369
2.22 -0.13092
2.23 -0.0877181
2.24 -0.0424138
2.25 0.00428795
2.26 0.0516251
2.27 0.098647
2.28 0.144577
2.29 0.188669
2.3 0.229892
2.31 0.267593
2.32 0.301375
2.33 0.330766
2.34 0.355079
2.35 0.373815
2.36 0.387322
2.37 0.395577
2.38 0.398554
2.39 0.395899
2.4 0.388629
2.41 0.377132
2.42 0.361862
2.43 0.342944
2.44 0.321413
2.45 0.297907
2.46 0.27301
2.47 0.247273
2.48 0.221375
2.49 0.195854
2.5 0.171155
2.51 0.14776
2.52 0.126085
2.53 0.106221
2.54 0.0883097
2.55 0.0724622
2.56 0.0588878
2.57 0.0472103
2.58 0.037273
2.59 0.028869
2.6 0.0218951
2.61 0.0158691
2.62 0.0104707
2.63 0.0053974
2.64 0.000327429
2.65 -0.00506019
2.66 -0.0110008
2.67 -0.0176923
2.68 -0.0253529
2.69 -0.0341273
2.7 -0.0439569
2.71 -0.054819
2.72 -0.0666582
2.73 -0.0794123
2.74 -0.0927692
2.75 -0.106507
2.76 -0.120373
2.77 -0.134032
2.78 -0.147178
2.79 -0.159527
2.8 -0.170799
2.81 -0.180568
2.82 -0.188632
2.83 -0.19488
2.84 -0.199165
2.85 -0.201245
2.86 -0.201009
2.87 -0.198668
2.88 -0.194288
2.89 -0.187938
2.9 -0.17962
2.91 -0.1698
2.92 -0.158722
2.93 -0.146656
2.94 -0.133831
2.95 -0.120678
2.96 -0.107507
2.97 -0.0946068
2.98 -0.082341
2.99 -0.0709707
3 -0.060677
3.01 -0.0516379
3.02 -0.0440932
3.03 -0.03819
3.04 -0.0338364
3.05 -0.0310304
3.06 -0.0297685
3.07 -0.0300991
3.08 -0.0316981
3.09 -0.0344107
3.1 -0.038059
3.11 -0.0425262
3.12 -0.0474768
3.13 -0.0526892
3.14 -0.0579534
3.15 -0.0630292
3.16 -0.0677067
3.17 -0.0718304
3.18 -0.0752568
3.19 -0.0778037
3.2 -0.0793442
3.21 -0.0798978
3.22 -0.0794335
3.23 -0.077916
3.24 -0.0752662
3.25 -0.0716618
3.26 -0.0671627
3.27 -0.0618413
3.28 -0.0556809
3.29 -0.0488821
3.3 -0.0415395
3.31 -0.0337368
3.32 -0.0255169
3.33 -0.01698
3.34 -0.0081977
3.35 0.000789804
3.36 0.00996702
3.37 0.0193234
3.38 0.0288464
3.39 0.0385499
3.4 0.0484638
3.41 0.0586463
3.42 0.0691043
3.43 0.0798719
3.44 0.0909806
3.45 0.102515
3.46 0.11444
3.47 0.126755
3.48 0.139451
3.49 0.152538
3.5 0.165943
3.51 0.179589
3.52 0.193399
3.53 0.207279
3.54 0.221101
3.55 0.234743
3.56 0.248078
3.57 0.260957
3.58 0.273167
3.59 0.284639
3.6 0.295246
3.61 0.304869
3.62 0.313222
3.63 0.320361
3.64 0.326223
3.65 0.330752
3.66 0.333757
3.67 0.335314
3.68 0.335498
3.69 0.334339
3.7 0.331793
3.71 0.327923
3.72 0.322923
3.73 0.316888
3.74 0.309892
3.75 0.30199
3.76 0.29341
3.77 0.284267
3.78 0.274673
3.79 0.2647
3.8 0.254511
3.81 0.244199
3.82 0.233845
3.83 0.223532
3.84 0.213324
3.85 0.203266
3.86 0.193393
3.87 0.183747
3.88 0.17435
3.89 0.165191
3.9 0.156271
3.91 0.147595
3.92 0.139179
3.93 0.130985
3.94 0.123008
3.95 0.115243
3.96 0.107722
3.97 0.100417
3.98 0.0933329
3.99 0.0864817
4 0.0799098
4.01 0.0736226
4.02 0.0676326
4.03 0.0619653
4.04 0.056677
4.05 0.0518034
4.06 0.0473414
4.07 0.0433156
4.08 0.0397654
4.09 0.0367529
4.1 0.0342333
4.11 0.0322144
4.12 0.0306984
4.13 0.0297603
4.14 0.0293131
4.15 0.0293415
4.16 0.0298279
4.17 0.0308
4.18 0.0321975
4.19 0.0339767
4.2 0.0361122
4.21 0.0386026
4.22 0.0414207
4.23 0.0445186
4.24 0.0478774
4.25 0.0514898
4.26 0.0553599
4.27 0.0594485
4.28 0.0637476
4.29 0.0682507
4.3 0.0729824
4.31 0.0779042
4.32 0.0830071
4.33 0.0882796
4.34 0.0937216
4.35 0.0992953
4.36 0.104965
4.37 0.110692
4.38 0.11643
4.39 0.122112
4.4 0.127672
4.41 0.133039
4.42 0.138117
4.43 0.142777
4.44 0.146959
4.45 0.150571
4.46 0.153516
4.47 0.155564
4.48 0.156737
4.49 0.156953
4.5 0.156139
4.51 0.154096
4.52 0.150858
4.53 0.146443
4.54 0.140838
4.55 0.133959
4.56 0.125842
4.57 0.116634
4.58 0.106403
4.59 0.0952043
4.6 0.0830992
4.61 0.0703196
4.62 0.0570007
4.63 0.0432862
4.64 0.0293131
4.65 0.0152917
4.66 0.00137495
4.67 -0.0122883
4.68 -0.0254915
4.69 -0.0381193
4.7 -0.0500743
4.71 -0.0612593
4.72 -0.0715196
4.73 -0.0807916
4.74 -0.0891103
4.75 -0.0964641
4.76 -0.102823
4.77 -0.108155
4.78 -0.112627
4.79 -0.116309
4.8 -0.119285
4.81 -0.121574
4.82 -0.123391
4.83 -0.124851
4.84 -0.126069
4.85 -0.12716
4.86 -0.128263
4.87 -0.129484
4.88 -0.130916
4.89 -0.132674
4.9 -0.134835
4.91 -0.137425
4.92 -0.140479
4.93 -0.144035
4.94 -0.148131
4.95 -0.152693
4.96 -0.157691
4.97 -0.163083
4.98 -0.168859
4.99 -0.174895
5 -0.181119
5.01 -0.187459
5.02 -0.193833
5.03 -0.20015
5.04 -0.206338
5.05 -0.212327
5.06 -0.218029
5.07 -0.223379
5.08 -0.228354
5.09 -0.232916
5.1 -0.237015
5.11 -0.240596
5.12 -0.243701
5.13 -0.246326
5.14 -0.248469
5.15 -0.25007
5.16 -0.251212
5.17 -0.251908
5.18 -0.252171
5.19 -0.25196
5.2 -0.251327
5.21 -0.25029
5.22 -0.248853
5.23 -0.246978
5.24 -0.244661
5.25 -0.241921
5.26 -0.238742
5.27 -0.235081
5.28 -0.23088
5.29 -0.226169
5.3 -0.220923
5.31 -0.215116
5.32 -0.208643
5.33 -0.201574
5.34 -0.1939
5.35 -0.185621
5.36 -0.176665
5.37 -0.16711
5.38 -0.157001
5.39 -0.146373
5.4 -0.135236
5.41 -0.123665
5.42 -0.111761
5.43 -0.0995977
5.44 -0.0872536
5.45 -0.0748279
5.46 -0.0624312
5.47 -0.0501593
5.48 -0.038112
5.49 -0.0264453
5.5 -0.0152142
5.51 -0.0045067
5.52 0.00559541
5.53 0.0149203
5.54 0.023462
5.55 0.031188
5.56 0.0380557
5.57 0.0439509
5.58 0.0488696
5.59 0.0528695
5.6 0.0559563
5.61 0.0581034
5.62 0.0592932
5.63 0.0596632
5.64 0.0592614
5.65 0.0581363
5.66 0.0562702
5.67 0.053836
5.68 0.0509059
5.69 0.0475545
5.7 0.0438228
5.71 0.0398337
5.72 0.035672
5.73 0.031411
5.74 0.0271255
5.75 0.0228953
5.76 0.0187828
5.77 0.0148446
5.78 0.0111464
5.79 0.0077563
5.8 0.00468584
5.81 0.00196597
5.82 -0.000374024
5.83 -0.00226144
5.84 -0.00374383
5.85 -0.00481919
5.86 -0.00549207
5.87 -0.00572382
5.88 -0.00557711
5.89 -0.00508791
5.9 -0.00428713
5.91 -0.00318917
5.92 -0.00185071
5.93 -0.000335764
5.94 0.00130642
5.95 0.00302513
5.96 0.00475814
5.97 0.0064448
5.98 0.00803197
5.99 0.00946533
6 0.0106623
6.01 0.0116039
6.02 0.012252
6.03 0.0125751
6.04 0.0124997
6.05 0.0120473
6.06 0.0112228
6.07 0.0100314
6.08 0.00845761
6.09 0.00654398
6.1 0.00435204
6.11 0.00193016
6.12 -0.000669849
6.13 -0.0033737
6.14 -0.00608946
6.15 -0.00873623
6.16 -0.011225
6.17 -0.0134217
6.18 -0.0152633
6.19 -0.0166622
6.2 -0.0175342
6.21 -0.0177074
6.22 -0.0171684
6.23 -0.0158707
6.24 -0.0137632
6.25 -0.0107214
6.26 -0.00674314
6.27 -0.00187342
6.28 0.00388368
6.29 0.0105575
6.3 0.0181472
6.31 0.0265139
6.32 0.0355962
6.33 0.0453308
6.34 0.0556908
6.35 0.0664935
6.36 0.0776395
6.37 0.0890248
6.38 0.100546
6.39 0.112066
6.4 0.123477
6.41 0.134677
6.42 0.145529
6.43 0.155937
6.44 0.165843
6.45 0.175173
6.46 0.183825
6.47 0.191709
6.48 0.198851
6.49 0.205222
6.5 0.210788
6.51 0.21544
6.52 0.21929
6.53 0.222345
6.54 0.224619
6.55 0.226028
6.56 0.226686
6.57 0.226637
6.58 0.225908
6.59 0.224464
6.6 0.222364
6.61 0.219674
6.62 0.216419
6.63 0.212591
6.64 0.208195
6.65 0.203305
6.66 0.197937
6.67 0.192101
6.68 0.185761
6.69 0.178999
6.7 0.171831
6.71 0.164276
6.72 0.156308
6.73 0.147998
6.74 0.139381
6.75 0.130489
6.76 0.121338
6.77 0.111986
6.78 0.102492
6.79 0.092905
6.8 0.0832797
6.81 0.0736833
6.82 0.0641772
6.83 0.0548214
6.84 0.0456822
6.85 0.0368613
6.86 0.0283853
6.87 0.0203094
6.88 0.0126857
6.89 0.00563892
6.9 -0.000845664
6.91 -0.00674207
6.92 -0.0120212
6.93 -0.0165932
6.94 -0.0204689
6.95 -0.0236781
6.96 -0.0262196
6.97 -0.0280571
6.98 -0.0291811
6.99 -0.0296725
7 -0.0295518
7.01 -0.0288302
7.02 -0.027475
7.03 -0.025595
7.04 -0.0232203
7.05 -0.0203816
7.06 -0.0170518
7.07 -0.0133205
7.08 -0.00922415
7.09 -0.00479181
7.1 -2.26732e-05
7.11 0.0050361
7.12 0.0103403
7.13 0.0158624
7.14 0.0215849
7.15 0.0274778
7.16 0.0334925
7.17 0.0395958
7.18 0.0457523
7.19 0.051918
7.2 0.0580442
7.21 0.0640851
7.22 0.0699915
7.23 0.0756764
7.24 0.0811016
7.25 0.0862129
7.26 0.0909518
7.27 0.0952078
7.28 0.098935
7.29 0.102102
7.3 0.104657
7.31 0.106506
7.32 0.107579
7.33 0.107907
7.34 0.107466
7.35 0.106218
7.36 0.104073
7.37 0.101143
7.38 0.097448
7.39 0.0930157
7.4 0.0877905
7.41 0.0819235
7.42 0.0754856
7.43 0.0685466
7.44 0.0611471
7.45 0.0534079
7.46 0.0454384
7.47 0.0373285
7.48 0.0291717
7.49 0.0210753
7.5 0.0131271
7.51 0.00540693
7.52 -0.00200101
7.53 -0.0089822
7.54 -0.0155249
7.55 -0.021585
7.56 -0.0271285
7.57 -0.0320505
7.58 -0.0364136
7.59 -0.0402262
7.6 -0.0435004
7.61 -0.046205
7.62 -0.0484062
7.63 -0.0501701
7.64 -0.0515419
7.65 -0.0525516
7.66 -0.0532566
7.67 -0.0537414
7.68 -0.0540604
7.69 -0.0542646
7.7 -0.0544055
7.71 -0.0545408
7.72 -0.0547099
7.73 -0.0549463
7.74 -0.0552948
7.75 -0.0557638
7.76 -0.0563638
7.77 -0.0571001
7.78 -0.0579853
7.79 -0.0590018
7.8 -0.0601288
7.81 -0.0613481
7.82 -0.0626411
7.83 -0.0639791
7.84 -0.0653299
7.85 -0.0666668
7.86 -0.0679615
7.87 -0.0691783
7.88 -0.0703011
7.89 -0.0713104
7.9 -0.0721902
7.91 -0.0729052
7.92 -0.0734674
7.93 -0.0738751
7.94 -0.0741296
7.95 -0.0742207
7.96 -0.0741695
7.97 -0.0739969
7.98 -0.0737197
7.99 -0.0733533
8 -0.0729231
8.01 -0.0724602
8.02 -0.0719901
8.03 -0.0715399
8.04 -0.0711448
8.05 -0.0708275
8.06 -0.0706132
8.07 -0.0705265
8.08 -0.0706171
8.09 -0.0708871
8.1 -0.0713554
8.11 -0.0720398
8.12 -0.0729844
8.13 -0.0741899
8.14 -0.0756563
8.15 -0.0773925
8.16 -0.0794258
8.17 -0.081764
8.18 -0.0843834
8.19 -0.0872816
8.2 -0.0904618
8.21 -0.0939376
8.22 -0.0976614
8.23 -0.101616
8.24 -0.105781
8.25 -0.110157
8.26 -0.114682
8.27 -0.119322
8.28 -0.124041
8.29 -0.128795
8.3 -0.13353
8.31 -0.138197
8.32 -0.142744
8.33 -0.147101
8.34 -0.1512
8.35 -0.155003
8.36 -0.158453
8.37 -0.161481
8.38 -0.163985
8.39 -0.165968
8.4 -0.167387
8.41 -0.168201
8.42 -0.168271
8.43 -0.167664
8.44 -0.166361
8.45 -0.164351
8.46 -0.161543
8.47 -0.157993
8.48 -0.153745
8.49 -0.148817
8.5 -0.143189
8.51 -0.136896
8.52 -0.130034
8.53 -0.122649
8.54 -0.114777
8.55 -0.106447
8.56 -0.0977738
8.57 -0.0888183
8.58 -0.079642
8.59 -0.0702918
8.6 -0.0608607
8.61 -0.051409
8.62 -0.0419949
8.63 -0.0326917
8.64 -0.0235532
8.65 -0.0146243
8.66 -0.00595082
8.67 0.00239779
8.68 0.0103731
8.69 0.0179645
8.7 0.0251394
8.71 0.031849
8.72 0.0380214
8.73 0.0436865
8.74 0.0488214
8.75 0.0534044
8.76 0.0573219
8.77 0.0606444
8.78 0.0633565
8.79 0.0654445
8.8 0.0668195
8.81 0.0675214
8.82 0.0675712
8.83 0.0669671
8.84 0.0656605
8.85 0.0636602
8.86 0.0610325
8.87 0.057797
8.88 0.0539576
8.89 0.0495092
8.9 0.0445619
8.91 0.0391634
8.92 0.0333674
8.93 0.0271912
8.94 0.0207636
8.95 0.0141574
8.96 0.00744961
8.97 0.000727808
8.98 -0.00591101
8.99 -0.0123837
9 -0.0186084
9.01 -0.0244723
9.02 -0.0298855
9.03 -0.0348064
9.04 -0.0391728
9.05 -0.042903
9.06 -0.0458948
9.07 -0.0481899
9.08 -0.0497669
9.09 -0.0506144
9.1 -0.0506216
9.11 -0.0499203
9.12 -0.0485374
9.13 -0.0465102
9.14 -0.0438191
9.15 -0.0405804
9.16 -0.036881
9.17 -0.0327912
9.18 -0.0283661
9.19 -0.0237004
9.2 -0.0188956
9.21 -0.0140292
9.22 -0.00918014
9.23 -0.00443849
9.24 0.000134637
9.25 0.00448063
9.26 0.00854668
9.27 0.0122333
9.28 0.0155528
9.29 0.0184802
9.3 0.0209982
9.31 0.0230455
9.32 0.024658
9.33 0.0258581
9.34 0.0266585
9.35 0.0270467
9.36 0.027053
9.37 0.0267317
9.38 0.0261109
9.39 0.0252088
9.4 0.024043
9.41 0.0226729
9.42 0.0211262
9.43 0.0194292
9.44 0.0175917
9.45 0.0156589
9.46 0.0136522
9.47 0.0115918
9.48 0.00949501
9.49 0.00738651
9.5 0.00528627
9.51 0.0032138
9.52 0.00119594
9.53 -0.000740648
9.54 -0.00257476
9.55 -0.00427882
9.56 -0.00581367
9.57 -0.00712695
9.58 -0.00820175
9.59 -0.00900001
9.6 -0.00947981
9.61 -0.00954157
9.62 -0.00919508
9.63 -0.00840108
9.64 -0.00712245
9.65 -0.00525564
9.66 -0.00281656
9.67 0.000199316
9.68 0.00380703
9.69 0.00806603
9.7 0.0129641
9.71 0.0184436
9.72 0.0244807
9.73 0.0310643
9.74 0.0381719
9.75 0.0456888
9.76 0.0535493
9.77 0.0616812
9.78 0.0700167
9.79 0.0784298
9.8 0.0868283
9.81 0.095118
9.82 0.103166
9.83 0.110884
9.84 0.11819
9.85 0.125002
9.86 0.131183
9.87 0.136664
9.88 0.141432
9.89 0.145442
9.9 0.148622
9.91 0.150899
9.92 0.15236
9.93 0.153012
9.94 0.152871
9.95 0.151869
9.96 0.150172
9.97 0.147834
9.98 0.144919
9.99 0.141441
10 0.137537
10.01 0.133299
10.02 0.128805
10.03 0.124124
10.04 0.11935
10.05 0.114562
10.06 0.109824
10.07 0.105203
10.08 0.100764
10.09 0.0965328
10.1 0.092539
10.11 0.0888065
10.12 0.0853853
10.13 0.0822369
10.14 0.0793542
10.15 0.0767232
10.16 0.0743502
10.17 0.072181
10.18 0.0701774
10.19 0.0683053
10.2 0.0665335
10.21 0.0648156
10.22 0.0631087
10.23 0.0613774
10.24 0.0595833
10.25 0.0576856
10.26 0.0556647
10.27 0.053498
10.28 0.0511643
10.29 0.0486224
10.3 0.0458879
10.31 0.0429548
10.32 0.0398208
10.33 0.0364607
10.34 0.0329006
10.35 0.029153
10.36 0.0252271
10.37 0.0211191
10.38 0.016848
10.39 0.0124383
10.4 0.00790401
10.41 0.00325465
10.42 -0.00149696
10.43 -0.00632411
10.44 -0.0112111
10.45 -0.0161423
10.46 -0.0211021
10.47 -0.0260675
10.48 -0.0310207
10.49 -0.0359433
10.5 -0.0408065
10.51 -0.0455926
10.52 -0.0502818
10.53 -0.0548523
10.54 -0.0592661
10.55 -0.0635002
10.56 -0.0675415
10.57 -0.0713675
10.58 -0.0749422
10.59 -0.0782289
10.6 -0.0812346
10.61 -0.0839432
10.62 -0.0863363
10.63 -0.088361
10.64 -0.0900566
10.65 -0.0914213
10.66 -0.0924568
10.67 -0.0931265
10.68 -0.093479
10.69 -0.0935372
10.7 -0.0933201
10.71 -0.0928281
10.72 -0.0920997
10.73 -0.0911789
10.74 -0.0900954
10.75 -0.0888741
10.76 -0.0875468
10.77 -0.0861561
10.78 -0.0847303
10.79 -0.0832959
10.8 -0.0818814
10.81 -0.0805059
10.82 -0.0791844
10.83 -0.0779275
10.84 -0.0767519
10.85 -0.0756506
10.86 -0.0746183
10.87 -0.0736473
10.88 -0.0727299
10.89 -0.0718467
10.9 -0.0709771
10.91 -0.070102
10.92 -0.0691986
10.93 -0.0682407
10.94 -0.0672124
10.95 -0.0660962
10.96 -0.0648746
10.97 -0.0635196
10.98 -0.0620388
10.99 -0.0604286
11 -0.0586897
11.01 -0.0568109
11.02 -0.0548186
11.03 -0.0527301
11.04 -0.0505638
11.05 -0.0483385
11.06 -0.0460861
11.07 -0.0438369
11.08 -0.0416192
11.09 -0.0394672
11.1 -0.0374184
11.11 -0.0354926
11.12 -0.0337145
11.13 -0.0321099
11.14 -0.0307222
11.15 -0.0295404
11.16 -0.0285735
11.17 -0.0278263
11.18 -0.0273291
11.19 -0.0270495
11.2 -0.0269731
11.21 -0.0270862
11.22 -0.0273868
11.23 -0.0278435
11.24 -0.0284233
11.25 -0.0291018
11.26 -0.0298567
11.27 -0.0306597
11.28 -0.0314798
11.29 -0.0322941
11.3 -0.0330803
11.31 -0.0338115
11.32 -0.034477
11.33 -0.0350644
11.34 -0.0355644
11.35 -0.035957
11.36 -0.0362507
11.37 -0.0364473
11.38 -0.0365493
11.39 -0.0365522
11.4 -0.0364674
11.41 -0.036307
11.42 -0.0360785
11.43 -0.0357858
11.44 -0.0354353
11.45 -0.0350382
11.46 -0.034599
11.47 -0.0341199
11.48 -0.0335977
11.49 -0.0330371
11.5 -0.0324357
11.51 -0.03179
11.52 -0.0310876
11.53 -0.0303285
11.54 -0.0295081
11.55 -0.028621
11.56 -0.0276547
11.57 -0.0266092
11.58 -0.0254876
11.59 -0.0242911
11.6 -0.0230192
11.61 -0.0216787
11.62 -0.0202868
11.63 -0.0188574
11.64 -0.0174073
11.65 -0.0159599
11.66 -0.0145406
11.67 -0.0131746
11.68 -0.0118885
11.69 -0.0107303
11.7 -0.00971759
11.71 -0.00887668
11.72 -0.00823416
11.73 -0.00784093
11.74 -0.00771113
11.75 -0.0078504
11.76 -0.00827295
11.77 -0.00900854
11.78 -0.010071
11.79 -0.0114315
11.8 -0.0130839
11.81 -0.0150241
11.82 -0.0172612
11.83 -0.0197364
11.84 -0.0224238
11.85 -0.0252941
11.86 -0.0283322
11.87 -0.0314782
11.88 -0.0346935
11.89 -0.0379406
11.9 -0.0411768
11.91 -0.044359
11.92 -0.0474521
11.93 -0.0504223
11.94 -0.0532253
