[DEFAULT]

version = diffpy.pdfgetx-2.2.1

# input and output specifications
dataformat = twotheta
inputfile = Synthetic_CSH_CSH_pdf_ramp_300_03_normalized.chi
backgroundfiles = quartz_030degC_normalized.chi
outputtype = gr

# PDF calculation setup
mode = xray
wavelength = 0.2113
twothetazero = 0
composition = CaO SiO2
bgscales = 1.0
rpoly = 0.9
qmaxinst = 23.7031
qmin = 0.5
qmax = 20
rmin = 0
rmax = 60
rstep = 0.01

# End of config --------------------------------------------------------------

#### start data
#S 1
#L r(Å)  G(Å$^{-2}$)
0 0
0.01 -0.00260248
0.02 -0.00511488
0.03 -0.00746059
0.04 -0.00956751
0.05 -0.0113262
0.06 -0.012697
0.07 -0.0136488
0.08 -0.0141494
0.09 -0.0141407
0.1 -0.0136189
0.11 -0.0126337
0.12 -0.011211
0.13 -0.00937561
0.14 -0.00716314
0.15 -0.00468581
0.16 -0.00201874
0.17 0.000755676
0.18 0.00353828
0.19 0.00622466
0.2 0.0087241
0.21 0.0109487
0.22 0.012763
0.23 0.014113
0.24 0.0149524
0.25 0.0152339
0.26 0.0148751
0.27 0.013863
0.28 0.0122517
0.29 0.0100672
0.3 0.00733431
0.31 0.00409528
0.32 0.000496193
0.33 -0.00336233
0.34 -0.00736644
0.35 -0.0113731
0.36 -0.0152293
0.37 -0.018796
0.38 -0.0219337
0.39 -0.0244191
0.4 -0.0261532
0.41 -0.0270417
0.42 -0.0269832
0.43 -0.0258018
0.44 -0.0234336
0.45 -0.0199261
0.46 -0.0152714
0.47 -0.0094401
0.48 -0.00241196
0.49 0.00560329
0.5 0.0145014
0.51 0.0241578
0.52 0.0344895
0.53 0.0452137
0.54 0.0561463
0.55 0.0670943
0.56 0.0778112
0.57 0.0880855
0.58 0.0977325
0.59 0.10657
0.6 0.114333
0.61 0.120854
0.62 0.126089
0.63 0.129939
0.64 0.132267
0.65 0.132925
0.66 0.132076
0.67 0.129744
0.68 0.125974
0.69 0.120654
0.7 0.114109
0.71 0.106462
0.72 0.0978505
0.73 0.0883384
0.74 0.0781793
0.75 0.0675549
0.76 0.0566159
0.77 0.0455024
0.78 0.0343708
0.79 0.0233421
0.8 0.0125087
0.81 0.00195866
0.82 -0.00822945
0.83 -0.0180639
0.84 -0.0275407
0.85 -0.036672
0.86 -0.0454504
0.87 -0.0539754
0.88 -0.0623035
0.89 -0.0704964
0.9 -0.0786154
0.91 -0.0867346
0.92 -0.0949057
0.93 -0.103166
0.94 -0.11155
0.95 -0.120059
0.96 -0.128663
0.97 -0.137322
0.98 -0.145971
0.99 -0.154506
1 -0.162826
1.01 -0.170815
1.02 -0.178339
1.03 -0.18516
1.04 -0.19122
1.05 -0.19639
1.06 -0.200556
1.07 -0.203464
1.08 -0.205141
1.09 -0.205579
1.1 -0.204767
1.11 -0.202623
1.12 -0.199251
1.13 -0.194843
1.14 -0.189542
1.15 -0.183501
1.16 -0.176939
1.17 -0.170169
1.18 -0.163448
1.19 -0.157049
1.2 -0.151369
1.21 -0.146609
1.22 -0.143014
1.23 -0.140802
1.24 -0.140385
1.25 -0.141754
1.26 -0.144942
1.27 -0.149971
1.28 -0.156957
1.29 -0.165728
1.3 -0.175977
1.31 -0.187457
1.32 -0.199894
1.33 -0.212889
1.34 -0.225935
1.35 -0.238583
1.36 -0.250344
1.37 -0.260471
1.38 -0.268631
1.39 -0.274364
1.4 -0.277237
1.41 -0.27639
1.42 -0.271801
1.43 -0.263322
1.44 -0.250795
1.45 -0.233767
1.46 -0.212392
1.47 -0.187099
1.48 -0.158135
1.49 -0.12569
1.5 -0.0901397
1.51 -0.0523722
1.52 -0.0129986
1.53 0.0273144
1.54 0.0677605
1.55 0.107481
1.56 0.145723
1.57 0.181741
1.58 0.214332
1.59 0.243058
1.6 0.267408
1.61 0.286871
1.62 0.300491
1.63 0.308066
1.64 0.309777
1.65 0.305565
1.66 0.295179
1.67 0.278563
1.68 0.256654
1.69 0.229878
1.7 0.198694
1.71 0.163324
1.72 0.125057
1.73 0.0846176
1.74 0.0427554
1.75 0.000244745
1.76 -0.0419892
1.77 -0.0832215
1.78 -0.122788
1.79 -0.159814
1.8 -0.193767
1.81 -0.224389
1.82 -0.251368
1.83 -0.274266
1.84 -0.292786
1.85 -0.30736
1.86 -0.318112
1.87 -0.3252
1.88 -0.328558
1.89 -0.329078
1.9 -0.327193
1.91 -0.323372
1.92 -0.317975
1.93 -0.311728
1.94 -0.305135
1.95 -0.298639
1.96 -0.292721
1.97 -0.287749
1.98 -0.283935
1.99 -0.281447
2 -0.28045
2.01 -0.28099
2.02 -0.282809
2.03 -0.285712
2.04 -0.289439
2.05 -0.293654
2.06 -0.297846
2.07 -0.301574
2.08 -0.304374
2.09 -0.305512
2.1 -0.304624
2.11 -0.301305
2.12 -0.295161
2.13 -0.285507
2.14 -0.272154
2.15 -0.255126
2.16 -0.234335
2.17 -0.209569
2.18 -0.180809
2.19 -0.148654
2.2 -0.113413
2.21 -0.0754342
2.22 -0.0350074
2.23 0.00695438
2.24 0.0498524
2.25 0.0930534
2.26 0.13576
2.27 0.177269
2.28 0.216947
2.29 0.254182
2.3 0.288049
2.31 0.31808
2.32 0.344041
2.33 0.365592
2.34 0.382182
2.35 0.393448
2.36 0.399816
2.37 0.401338
2.38 0.398054
2.39 0.389711
2.4 0.377276
2.41 0.361133
2.42 0.341718
2.43 0.319183
2.44 0.294454
2.45 0.268103
2.46 0.240654
2.47 0.212607
2.48 0.184556
2.49 0.156966
2.5 0.13023
2.51 0.104781
2.52 0.0809967
2.53 0.0589528
2.54 0.0387875
2.55 0.0206229
2.56 0.00469581
2.57 -0.009319
2.58 -0.0215236
2.59 -0.0320604
2.6 -0.0409198
2.61 -0.0485221
2.62 -0.055112
2.63 -0.0609144
2.64 -0.0661159
2.65 -0.0709892
2.66 -0.0757511
2.67 -0.0805644
2.68 -0.0855822
2.69 -0.0909294
2.7 -0.0966421
2.71 -0.102743
2.72 -0.10923
2.73 -0.116088
2.74 -0.123189
2.75 -0.130433
2.76 -0.137703
2.77 -0.144835
2.78 -0.15169
2.79 -0.158133
2.8 -0.164035
2.81 -0.169196
2.82 -0.173531
2.83 -0.177001
2.84 -0.17955
2.85 -0.181082
2.86 -0.181568
2.87 -0.181123
2.88 -0.179796
2.89 -0.177637
2.9 -0.174672
2.91 -0.171114
2.92 -0.167077
2.93 -0.162683
2.94 -0.158035
2.95 -0.153297
2.96 -0.148579
2.97 -0.143979
2.98 -0.139606
2.99 -0.135522
3 -0.131755
3.01 -0.128326
3.02 -0.125256
3.03 -0.122529
3.04 -0.120072
3.05 -0.117831
3.06 -0.11574
3.07 -0.113716
3.08 -0.111659
3.09 -0.109487
3.1 -0.107118
3.11 -0.104426
3.12 -0.101375
3.13 -0.0979178
3.14 -0.0940155
3.15 -0.0895929
3.16 -0.0846707
3.17 -0.0792855
3.18 -0.0734641
3.19 -0.0672224
3.2 -0.060615
3.21 -0.0537385
3.22 -0.0466593
3.23 -0.0394434
3.24 -0.0321615
3.25 -0.024889
3.26 -0.0176776
3.27 -0.0105681
3.28 -0.00361023
3.29 0.00320315
3.3 0.00988128
3.31 0.0164481
3.32 0.0229415
3.33 0.0294324
3.34 0.0359954
3.35 0.0427117
3.36 0.0496933
3.37 0.0570574
3.38 0.0648717
3.39 0.073223
3.4 0.0822102
3.41 0.0919757
3.42 0.102482
3.43 0.113754
3.44 0.125796
3.45 0.138696
3.46 0.15229
3.47 0.166496
3.48 0.181213
3.49 0.196345
3.5 0.211695
3.51 0.22708
3.52 0.24232
3.53 0.257188
3.54 0.271441
3.55 0.284922
3.56 0.297442
3.57 0.308782
3.58 0.318629
3.59 0.326998
3.6 0.333774
3.61 0.338869
3.62 0.34195
3.63 0.343242
3.64 0.342765
3.65 0.340555
3.66 0.336497
3.67 0.330814
3.68 0.323702
3.69 0.315303
3.7 0.305702
3.71 0.295087
3.72 0.283732
3.73 0.271812
3.74 0.259498
3.75 0.246966
3.76 0.234415
3.77 0.221985
3.78 0.209803
3.79 0.19804
3.8 0.186738
3.81 0.175952
3.82 0.165722
3.83 0.156133
3.84 0.147143
3.85 0.138705
3.86 0.130788
3.87 0.123378
3.88 0.116419
3.89 0.109815
3.9 0.103509
3.91 0.0974555
3.92 0.0916153
3.93 0.0859216
3.94 0.0803463
3.95 0.0748724
3.96 0.0695112
3.97 0.0642599
3.98 0.0591419
3.99 0.0541924
4 0.0494878
4.01 0.0450765
4.02 0.0410103
4.03 0.0373541
4.04 0.0342156
4.05 0.0316755
4.06 0.0297514
4.07 0.0284947
4.08 0.0279755
4.09 0.0282932
4.1 0.0293741
4.11 0.03122
4.12 0.0338185
4.13 0.0372516
4.14 0.0413595
4.15 0.0460835
4.16 0.0513562
4.17 0.0571459
4.18 0.0633176
4.19 0.0697605
4.2 0.0763808
4.21 0.083083
4.22 0.0897565
4.23 0.0963094
4.24 0.102661
4.25 0.108727
4.26 0.114404
4.27 0.11968
4.28 0.124514
4.29 0.128878
4.3 0.132676
4.31 0.135978
4.32 0.138787
4.33 0.141115
4.34 0.142926
4.35 0.144281
4.36 0.145226
4.37 0.145784
4.38 0.145955
4.39 0.145765
4.4 0.145262
4.41 0.144458
4.42 0.143353
4.43 0.141925
4.44 0.140206
4.45 0.138188
4.46 0.135859
4.47 0.133146
4.48 0.130081
4.49 0.126644
4.5 0.122817
4.51 0.11853
4.52 0.113801
4.53 0.108638
4.54 0.10304
4.55 0.0969773
4.56 0.0904663
4.57 0.0835633
4.58 0.0762985
4.59 0.0686977
4.6 0.0607925
4.61 0.0526722
4.62 0.0443932
4.63 0.0360147
4.64 0.0276015
4.65 0.0192271
4.66 0.0109498
4.67 0.00282389
4.68 -0.00507183
4.69 -0.0127073
4.7 -0.0200591
4.71 -0.0271052
4.72 -0.0338066
4.73 -0.0401641
4.74 -0.0462135
4.75 -0.0519751
4.76 -0.0574686
4.77 -0.062722
4.78 -0.0678096
4.79 -0.0727804
4.8 -0.0776862
4.81 -0.0825861
4.82 -0.0875388
4.83 -0.0925919
4.84 -0.097788
4.85 -0.103189
4.86 -0.10881
4.87 -0.114661
4.88 -0.120748
4.89 -0.127087
4.9 -0.133657
4.91 -0.140414
4.92 -0.147324
4.93 -0.154345
4.94 -0.161421
4.95 -0.168484
4.96 -0.175474
4.97 -0.182329
4.98 -0.188947
4.99 -0.195294
5 -0.201315
5.01 -0.206961
5.02 -0.212132
5.03 -0.216828
5.04 -0.221037
5.05 -0.224746
5.06 -0.227902
5.07 -0.230517
5.08 -0.232638
5.09 -0.234284
5.1 -0.235461
5.11 -0.236173
5.12 -0.236503
5.13 -0.236485
5.14 -0.236149
5.15 -0.235489
5.16 -0.234579
5.17 -0.23344
5.18 -0.23209
5.19 -0.230515
5.2 -0.228736
5.21 -0.226757
5.22 -0.224567
5.23 -0.222129
5.24 -0.21942
5.25 -0.216431
5.26 -0.213136
5.27 -0.209487
5.28 -0.20543
5.29 -0.200977
5.3 -0.196109
5.31 -0.190807
5.32 -0.184998
5.33 -0.178751
5.34 -0.172075
5.35 -0.164989
5.36 -0.157479
5.37 -0.149625
5.38 -0.141487
5.39 -0.133122
5.4 -0.124583
5.41 -0.115955
5.42 -0.107319
5.43 -0.0987503
5.44 -0.0903316
5.45 -0.0821603
5.46 -0.0742848
5.47 -0.0667655
5.48 -0.0596601
5.49 -0.0530837
5.5 -0.047005
5.51 -0.0414462
5.52 -0.0364192
5.53 -0.0319936
5.54 -0.0281038
5.55 -0.0247122
5.56 -0.0217888
5.57 -0.0193308
5.58 -0.0172766
5.59 -0.0155475
5.6 -0.0140915
5.61 -0.0128644
5.62 -0.0118146
5.63 -0.0108705
5.64 -0.00998739
5.65 -0.00912542
5.66 -0.00824495
5.67 -0.00732022
5.68 -0.00633453
5.69 -0.00527877
5.7 -0.00414256
5.71 -0.00294111
5.72 -0.00169049
5.73 -0.000410029
5.74 0.000874544
5.75 0.00213057
5.76 0.00332872
5.77 0.00443949
5.78 0.00542676
5.79 0.00625171
5.8 0.00690556
5.81 0.00737068
5.82 0.00763182
5.83 0.00765334
5.84 0.00746601
5.85 0.00707617
5.86 0.00649561
5.87 0.00572099
5.88 0.00479597
5.89 0.00375126
5.9 0.00261529
5.91 0.00141529
5.92 0.000188919
5.93 -0.00103075
5.94 -0.0022162
5.95 -0.00333815
5.96 -0.00436756
5.97 -0.00529523
5.98 -0.00610948
5.99 -0.00680137
6 -0.007352
6.01 -0.00778188
6.02 -0.00809714
6.03 -0.00830664
6.04 -0.00841009
6.05 -0.00843142
6.06 -0.00838474
6.07 -0.00828046
6.08 -0.00812254
6.09 -0.00791749
6.1 -0.00766787
6.11 -0.00736826
6.12 -0.00700371
6.13 -0.00655011
6.14 -0.00599056
6.15 -0.00529637
6.16 -0.00443095
6.17 -0.00332375
6.18 -0.00195925
6.19 -0.000294808
6.2 0.00171251
6.21 0.00416238
6.22 0.00705597
6.23 0.0104178
6.24 0.0142763
6.25 0.0187046
6.26 0.0237002
6.27 0.0292317
6.28 0.0352917
6.29 0.0418898
6.3 0.0490142
6.31 0.056572
6.32 0.0645137
6.33 0.0727858
6.34 0.0813444
6.35 0.090072
6.36 0.0988918
6.37 0.107724
6.38 0.116469
6.39 0.125042
6.4 0.133371
6.41 0.141382
6.42 0.148967
6.43 0.156071
6.44 0.162671
6.45 0.168726
6.46 0.174173
6.47 0.178964
6.48 0.18315
6.49 0.186732
6.5 0.18971
6.51 0.192033
6.52 0.19381
6.53 0.195072
6.54 0.19585
6.55 0.196124
6.56 0.195987
6.57 0.195483
6.58 0.194644
6.59 0.193473
6.6 0.192009
6.61 0.19029
6.62 0.188329
6.63 0.186121
6.64 0.183659
6.65 0.180964
6.66 0.178027
6.67 0.174834
6.68 0.171337
6.69 0.167558
6.7 0.163483
6.71 0.159101
6.72 0.154357
6.73 0.149283
6.74 0.143888
6.75 0.138177
6.76 0.132136
6.77 0.125803
6.78 0.119225
6.79 0.112439
6.8 0.10548
6.81 0.0984041
6.82 0.0912821
6.83 0.0841733
6.84 0.077143
6.85 0.070282
6.86 0.0636409
6.87 0.0572812
6.88 0.0512615
6.89 0.0456988
6.9 0.040598
6.91 0.0359915
6.92 0.0319111
6.93 0.0284387
6.94 0.0255656
6.95 0.0232632
6.96 0.0215261
6.97 0.020374
6.98 0.0197981
6.99 0.0197146
7 0.0200868
7.01 0.020882
7.02 0.0220889
7.03 0.0236042
7.04 0.0253785
7.05 0.0273628
7.06 0.0295255
7.07 0.0317946
7.08 0.0341256
7.09 0.03648
7.1 0.0388192
7.11 0.0411095
7.12 0.0433277
7.13 0.0454544
7.14 0.0474659
7.15 0.0493448
7.16 0.0510936
7.17 0.0527064
7.18 0.0541756
7.19 0.0554815
7.2 0.0566403
7.21 0.0576482
7.22 0.0585008
7.23 0.0591675
7.24 0.05966
7.25 0.0599705
7.26 0.0600868
7.27 0.0599714
7.28 0.0596167
7.29 0.0590176
7.3 0.0581575
7.31 0.0570006
7.32 0.0555207
7.33 0.0537315
7.34 0.0516231
7.35 0.0491804
7.36 0.0463657
7.37 0.0432265
7.38 0.0397716
7.39 0.0360148
7.4 0.0319374
7.41 0.0276058
7.42 0.0230549
7.43 0.0183198
7.44 0.0134289
7.45 0.00843973
7.46 0.00340458
7.47 -0.00163084
7.48 -0.00661444
7.49 -0.0114907
7.5 -0.0162229
7.51 -0.0207725
7.52 -0.0250979
7.53 -0.0291391
7.54 -0.0329036
7.55 -0.0363747
7.56 -0.039542
7.57 -0.0423556
7.58 -0.044861
7.59 -0.0470712
7.6 -0.0490009
7.61 -0.0506434
7.62 -0.0520411
7.63 -0.0532339
7.64 -0.0542506
7.65 -0.0551124
7.66 -0.055852
7.67 -0.0565101
7.68 -0.0571129
7.69 -0.0576834
7.7 -0.0582438
7.71 -0.0588127
7.72 -0.0594014
7.73 -0.0600171
7.74 -0.0606674
7.75 -0.0613463
7.76 -0.0620483
7.77 -0.0627651
7.78 -0.0634852
7.79 -0.0641938
7.8 -0.0648773
7.81 -0.0655222
7.82 -0.0661111
7.83 -0.0666292
7.84 -0.0670723
7.85 -0.067434
7.86 -0.0677078
7.87 -0.0678852
7.88 -0.0679808
7.89 -0.0680015
7.9 -0.067957
7.91 -0.067854
7.92 -0.0677168
7.93 -0.067563
7.94 -0.0674104
7.95 -0.0672816
7.96 -0.0671964
7.97 -0.0671705
7.98 -0.0672193
7.99 -0.0673631
8 -0.0676156
8.01 -0.0679756
8.02 -0.0684469
8.03 -0.0690333
8.04 -0.0697416
8.05 -0.0705508
8.06 -0.0714517
8.07 -0.0724329
8.08 -0.0734894
8.09 -0.0745951
8.1 -0.0757346
8.11 -0.0768931
8.12 -0.0780556
8.13 -0.0792071
8.14 -0.0803373
8.15 -0.0814379
8.16 -0.0825004
8.17 -0.0835212
8.18 -0.0845037
8.19 -0.0854508
8.2 -0.0863669
8.21 -0.087258
8.22 -0.0881363
8.23 -0.0890109
8.24 -0.0898909
8.25 -0.0907878
8.26 -0.0917071
8.27 -0.0926526
8.28 -0.0936259
8.29 -0.0946273
8.3 -0.0956477
8.31 -0.096675
8.32 -0.0976942
8.33 -0.0986824
8.34 -0.0996111
8.35 -0.100455
8.36 -0.101185
8.37 -0.101762
8.38 -0.10213
8.39 -0.102274
8.4 -0.102162
8.41 -0.101763
8.42 -0.100994
8.43 -0.0998776
8.44 -0.0983961
8.45 -0.0965367
8.46 -0.0942481
8.47 -0.0915596
8.48 -0.0884973
8.49 -0.0850774
8.5 -0.0812999
8.51 -0.0771996
8.52 -0.0728416
8.53 -0.0682687
8.54 -0.0635237
8.55 -0.0586562
8.56 -0.0537386
8.57 -0.0488245
8.58 -0.0439674
8.59 -0.0392438
8.6 -0.034691
8.61 -0.0303527
8.62 -0.026268
8.63 -0.0225078
8.64 -0.0190808
8.65 -0.0159933
8.66 -0.0132573
8.67 -0.0109057
8.68 -0.00893724
8.69 -0.0073132
8.7 -0.00601891
8.71 -0.00504602
8.72 -0.00439054
8.73 -0.00398838
8.74 -0.00381087
8.75 -0.0038286
8.76 -0.00403403
8.77 -0.00436973
8.78 -0.00480958
8.79 -0.00533022
8.8 -0.00591643
8.81 -0.00654467
8.82 -0.00720049
8.83 -0.00787535
8.84 -0.00856504
8.85 -0.00926774
8.86 -0.0099839
8.87 -0.010717
8.88 -0.011473
8.89 -0.0122605
8.9 -0.0130821
8.91 -0.0139421
8.92 -0.0148436
8.93 -0.0157935
8.94 -0.0167825
8.95 -0.0178047
8.96 -0.0188511
8.97 -0.0199091
8.98 -0.0209592
8.99 -0.021982
9 -0.0229559
9.01 -0.0238497
9.02 -0.0246341
9.03 -0.0252902
9.04 -0.0257937
9.05 -0.0261135
9.06 -0.0262106
9.07 -0.0260897
9.08 -0.0257379
9.09 -0.0251464
9.1 -0.0242737
9.11 -0.0231612
9.12 -0.0218173
9.13 -0.0202558
9.14 -0.0184738
9.15 -0.0165161
9.16 -0.0144186
9.17 -0.0122132
9.18 -0.00993098
9.19 -0.00761535
9.2 -0.0053077
9.21 -0.00304346
9.22 -0.000861234
9.23 0.00119461
9.24 0.00310755
9.25 0.00485545
9.26 0.0064204
9.27 0.00775967
9.28 0.00889816
9.29 0.00983725
9.3 0.0105838
9.31 0.01113
9.32 0.0115123
9.33 0.0117597
9.34 0.0118984
9.35 0.0119527
9.36 0.0119598
9.37 0.0119562
9.38 0.0119723
9.39 0.0120408
9.4 0.0121985
9.41 0.0124619
9.42 0.0128505
9.43 0.0133802
9.44 0.0140861
9.45 0.0149506
9.46 0.0159744
9.47 0.017154
9.48 0.0184992
9.49 0.0199837
9.5 0.0215882
9.51 0.0232969
9.52 0.0250985
9.53 0.0269715
9.54 0.0288932
9.55 0.0308484
9.56 0.0328247
9.57 0.0348109
9.58 0.0367987
9.59 0.0387853
9.6 0.0407712
9.61 0.0427623
9.62 0.044767
9.63 0.0467964
9.64 0.0488642
9.65 0.0509944
9.66 0.053201
9.67 0.0554984
9.68 0.0579022
9.69 0.060438
9.7 0.0631171
9.71 0.0659378
9.72 0.0689031
9.73 0.072018
9.74 0.0752832
9.75 0.0786691
9.76 0.0821574
9.77 0.0857249
9.78 0.0893451
9.79 0.0929729
9.8 0.0965709
9.81 0.100098
9.82 0.103493
9.83 0.106716
9.84 0.109728
9.85 0.112487
9.86 0.114924
9.87 0.117002
9.88 0.118711
9.89 0.120026
9.9 0.120905
9.91 0.121307
9.92 0.121273
9.93 0.120804
9.94 0.119903
9.95 0.11853
9.96 0.116769
9.97 0.114647
9.98 0.112195
9.99 0.109413
10 0.106373
10.01 0.103123
10.02 0.0997019
10.03 0.096141
10.04 0.0924872
10.05 0.088784
10.06 0.0850631
10.07 0.0813546
10.08 0.0776884
10.09 0.0740812
10.1 0.0705468
10.11 0.0670956
10.12 0.0637449
10.13 0.0604818
10.14 0.0573024
10.15 0.0541996
10.16 0.0511712
10.17 0.0481965
10.18 0.0452605
10.19 0.0423495
10.2 0.0394494
10.21 0.0365446
10.22 0.0336229
10.23 0.0306746
10.24 0.0276896
10.25 0.0246593
10.26 0.0215851
10.27 0.0184666
10.28 0.0153056
10.29 0.0121021
10.3 0.00886886
10.31 0.00561424
10.32 0.00234765
10.33 -0.000919339
10.34 -0.00417409
10.35 -0.00740561
10.36 -0.0106032
10.37 -0.0137515
10.38 -0.0168408
10.39 -0.0198659
10.4 -0.0228198
10.41 -0.025692
10.42 -0.0284726
10.43 -0.0311666
10.44 -0.033771
10.45 -0.0362827
10.46 -0.0386876
10.47 -0.0409979
10.48 -0.0432124
10.49 -0.0453296
10.5 -0.0473341
10.51 -0.0492338
10.52 -0.0510283
10.53 -0.0527137
10.54 -0.0542744
10.55 -0.0557079
10.56 -0.0570163
10.57 -0.058194
10.58 -0.0592279
10.59 -0.0601051
10.6 -0.0608359
10.61 -0.0614173
10.62 -0.0618451
10.63 -0.0621001
10.64 -0.0622063
10.65 -0.062168
10.66 -0.0619915
10.67 -0.0616689
10.68 -0.0612273
10.69 -0.0606825
10.7 -0.0600491
10.71 -0.0593376
10.72 -0.0585706
10.73 -0.0577697
10.74 -0.0569524
10.75 -0.0561365
10.76 -0.0553413
10.77 -0.0545802
10.78 -0.0538648
10.79 -0.0532056
10.8 -0.0526175
10.81 -0.0520951
10.82 -0.0516378
10.83 -0.0512423
10.84 -0.0509084
10.85 -0.0506186
10.86 -0.0503591
10.87 -0.0501156
10.88 -0.0498705
10.89 -0.0496037
10.9 -0.0492985
10.91 -0.0489382
10.92 -0.0485026
10.93 -0.0479721
10.94 -0.0473437
10.95 -0.04661
10.96 -0.0457646
10.97 -0.0447941
10.98 -0.0437184
10.99 -0.0425459
11 -0.0412887
11.01 -0.0399552
11.02 -0.0385755
11.03 -0.0371731
11.04 -0.0357718
11.05 -0.0344022
11.06 -0.0330937
11.07 -0.0318694
11.08 -0.0307533
11.09 -0.0297764
11.1 -0.028967
11.11 -0.0283262
11.12 -0.0278645
11.13 -0.0275919
11.14 -0.0275318
11.15 -0.0276531
11.16 -0.027946
11.17 -0.0283963
11.18 -0.0290016
11.19 -0.0297191
11.2 -0.0305194
11.21 -0.0313738
11.22 -0.032251
11.23 -0.0331134
11.24 -0.0339291
11.25 -0.0346686
11.26 -0.0352966
11.27 -0.0357793
11.28 -0.0361076
11.29 -0.0362657
11.3 -0.0362381
11.31 -0.0359958
11.32 -0.0355644
11.33 -0.0349486
11.34 -0.0341578
11.35 -0.0331848
11.36 -0.0320703
11.37 -0.0308386
11.38 -0.0295133
11.39 -0.0281155
11.4 -0.0266789
11.41 -0.0252331
11.42 -0.0238028
11.43 -0.0224149
11.44 -0.0210959
11.45 -0.0198583
11.46 -0.0187154
11.47 -0.0176797
11.48 -0.01677
11.49 -0.0159725
11.5 -0.0152845
11.51 -0.0147001
11.52 -0.0142221
11.53 -0.0138252
11.54 -0.0134944
11.55 -0.0132148
11.56 -0.0129739
11.57 -0.0127529
11.58 -0.012537
11.59 -0.0123148
11.6 -0.012076
11.61 -0.0118131
11.62 -0.0115257
11.63 -0.0112149
11.64 -0.0108849
11.65 -0.010544
11.66 -0.0102061
11.67 -0.0098855
11.68 -0.00959814
11.69 -0.00937178
11.7 -0.00922069
11.71 -0.00916259
11.72 -0.00921522
11.73 -0.00940992
11.74 -0.00975631
11.75 -0.0102578
11.76 -0.0109215
11.77 -0.0117618
11.78 -0.0127815
11.79 -0.0139586
11.8 -0.0152828
11.81 -0.0167421
11.82 -0.0183266
11.83 -0.0199961
11.84 -0.0217249
11.85 -0.023485
11.86 -0.0252429
11.87 -0.026964
11.88 -0.0286184
11.89 -0.0301769
11.9 -0.0315961
11.91 -0.0328535
